# Pulseq sequence file
# Created by MATLAB mr toolbox

[VERSION]
major 1
minor 4
revision 0

[DEFINITIONS]
AdcRasterTime 1e-07 
BlockDurationRaster 1e-05 
FOV 0.256 0.256 0.003 
GradientRasterTime 1e-05 
Name gre 
RadiofrequencyRasterTime 1e-06 
TotalDuration 5.376 

# Format of blocks:
# NUM DUR RF  GX  GY  GZ  ADC  EXT
[BLOCKS]
   1 317   1   0   0   1  0  0
   2  78   0   4   2   3  0  0
   3 330   0   5   0   0  1  0
   4 1375   0   6   7   8  0  0
   5 317   2   0   0   1  0  0
   6  78   0   4   9   3  0  0
   7 330   0   5   0   0  2  0
   8 1375   0   6  10   8  0  0
   9 317   3   0   0   1  0  0
  10  78   0   4  11   3  0  0
  11 330   0   5   0   0  3  0
  12 1375   0   6  12   8  0  0
  13 317   4   0   0   1  0  0
  14  78   0   4  13   3  0  0
  15 330   0   5   0   0  4  0
  16 1375   0   6  14   8  0  0
  17 317   5   0   0   1  0  0
  18  78   0   4  15   3  0  0
  19 330   0   5   0   0  5  0
  20 1375   0   6  16   8  0  0
  21 317   6   0   0   1  0  0
  22  78   0   4  17   3  0  0
  23 330   0   5   0   0  6  0
  24 1375   0   6  18   8  0  0
  25 317   7   0   0   1  0  0
  26  78   0   4  19   3  0  0
  27 330   0   5   0   0  7  0
  28 1375   0   6  20   8  0  0
  29 317   8   0   0   1  0  0
  30  78   0   4  21   3  0  0
  31 330   0   5   0   0  8  0
  32 1375   0   6  22   8  0  0
  33 317   9   0   0   1  0  0
  34  78   0   4  23   3  0  0
  35 330   0   5   0   0  9  0
  36 1375   0   6  24   8  0  0
  37 317  10   0   0   1  0  0
  38  78   0   4  25   3  0  0
  39 330   0   5   0   0 10  0
  40 1375   0   6  26   8  0  0
  41 317   6   0   0   1  0  0
  42  78   0   4  27   3  0  0
  43 330   0   5   0   0  6  0
  44 1375   0   6  28   8  0  0
  45 317  11   0   0   1  0  0
  46  78   0   4  29   3  0  0
  47 330   0   5   0   0 11  0
  48 1375   0   6  30   8  0  0
  49 317  12   0   0   1  0  0
  50  78   0   4  31   3  0  0
  51 330   0   5   0   0 12  0
  52 1375   0   6  32   8  0  0
  53 317  13   0   0   1  0  0
  54  78   0   4  33   3  0  0
  55 330   0   5   0   0 13  0
  56 1375   0   6  34   8  0  0
  57 317  14   0   0   1  0  0
  58  78   0   4  35   3  0  0
  59 330   0   5   0   0 14  0
  60 1375   0   6  36   8  0  0
  61 317   1   0   0   1  0  0
  62  78   0   4  37   3  0  0
  63 330   0   5   0   0  1  0
  64 1375   0   6  38   8  0  0
  65 317  15   0   0   1  0  0
  66  78   0   4  39   3  0  0
  67 330   0   5   0   0 15  0
  68 1375   0   6  40   8  0  0
  69 317  16   0   0   1  0  0
  70  78   0   4  41   3  0  0
  71 330   0   5   0   0 16  0
  72 1375   0   6  42   8  0  0
  73 317  13   0   0   1  0  0
  74  78   0   4  43   3  0  0
  75 330   0   5   0   0 13  0
  76 1375   0   6  44   8  0  0
  77 317  17   0   0   1  0  0
  78  78   0   4  45   3  0  0
  79 330   0   5   0   0 17  0
  80 1375   0   6  46   8  0  0
  81 317   5   0   0   1  0  0
  82  78   0   4  47   3  0  0
  83 330   0   5   0   0  5  0
  84 1375   0   6  48   8  0  0
  85 317  18   0   0   1  0  0
  86  78   0   4  49   3  0  0
  87 330   0   5   0   0 18  0
  88 1375   0   6  50   8  0  0
  89 317  19   0   0   1  0  0
  90  78   0   4  51   3  0  0
  91 330   0   5   0   0 19  0
  92 1375   0   6  52   8  0  0
  93 317   9   0   0   1  0  0
  94  78   0   4  53   3  0  0
  95 330   0   5   0   0  9  0
  96 1375   0   6  54   8  0  0
  97 317  20   0   0   1  0  0
  98  78   0   4  55   3  0  0
  99 330   0   5   0   0 20  0
 100 1375   0   6  56   8  0  0
 101 317  10   0   0   1  0  0
 102  78   0   4  57   3  0  0
 103 330   0   5   0   0 10  0
 104 1375   0   6  58   8  0  0
 105 317  18   0   0   1  0  0
 106  78   0   4  59   3  0  0
 107 330   0   5   0   0 18  0
 108 1375   0   6  60   8  0  0
 109 317  21   0   0   1  0  0
 110  78   0   4  61   3  0  0
 111 330   0   5   0   0 21  0
 112 1375   0   6  62   8  0  0
 113 317   4   0   0   1  0  0
 114  78   0   4  63   3  0  0
 115 330   0   5   0   0  4  0
 116 1375   0   6  64   8  0  0
 117 317  22   0   0   1  0  0
 118  78   0   4  65   3  0  0
 119 330   0   5   0   0 22  0
 120 1375   0   6  66   8  0  0
 121 317  14   0   0   1  0  0
 122  78   0   4  67   3  0  0
 123 330   0   5   0   0 14  0
 124 1375   0   6  68   8  0  0
 125 317  15   0   0   1  0  0
 126  78   0   4  69   3  0  0
 127 330   0   5   0   0 15  0
 128 1375   0   6  70   8  0  0
 129 317  23   0   0   1  0  0
 130  78   0   4  71   3  0  0
 131 330   0   5   0   0 23  0
 132 1375   0   6  72   8  0  0
 133 317   2   0   0   1  0  0
 134  78   0   4  73   3  0  0
 135 330   0   5   0   0  2  0
 136 1375   0   6  74   8  0  0
 137 317  22   0   0   1  0  0
 138  78   0   4  75   3  0  0
 139 330   0   5   0   0 22  0
 140 1375   0   6  76   8  0  0
 141 317  17   0   0   1  0  0
 142  78   0   4  77   3  0  0
 143 330   0   5   0   0 17  0
 144 1375   0   6  78   8  0  0
 145 317  11   0   0   1  0  0
 146  78   0   4  79   3  0  0
 147 330   0   5   0   0 11  0
 148 1375   0   6  80   8  0  0
 149 317  24   0   0   1  0  0
 150  78   0   4  81   3  0  0
 151 330   0   5   0   0 24  0
 152 1375   0   6  82   8  0  0
 153 317   7   0   0   1  0  0
 154  78   0   4  83   3  0  0
 155 330   0   5   0   0  7  0
 156 1375   0   6  84   8  0  0
 157 317  20   0   0   1  0  0
 158  78   0   4  85   3  0  0
 159 330   0   5   0   0 20  0
 160 1375   0   6  86   8  0  0
 161 317  20   0   0   1  0  0
 162  78   0   4  87   3  0  0
 163 330   0   5   0   0 20  0
 164 1375   0   6  88   8  0  0
 165 317   7   0   0   1  0  0
 166  78   0   4  89   3  0  0
 167 330   0   5   0   0  7  0
 168 1375   0   6  90   8  0  0
 169 317  24   0   0   1  0  0
 170  78   0   4  91   3  0  0
 171 330   0   5   0   0 24  0
 172 1375   0   6  92   8  0  0
 173 317  11   0   0   1  0  0
 174  78   0   4  93   3  0  0
 175 330   0   5   0   0 11  0
 176 1375   0   6  94   8  0  0
 177 317  17   0   0   1  0  0
 178  78   0   4  95   3  0  0
 179 330   0   5   0   0 17  0
 180 1375   0   6  96   8  0  0
 181 317  22   0   0   1  0  0
 182  78   0   4  97   3  0  0
 183 330   0   5   0   0 22  0
 184 1375   0   6  98   8  0  0
 185 317   2   0   0   1  0  0
 186  78   0   4  99   3  0  0
 187 330   0   5   0   0  2  0
 188 1375   0   6 100   8  0  0
 189 317  23   0   0   1  0  0
 190  78   0   4 101   3  0  0
 191 330   0   5   0   0 23  0
 192 1375   0   6 102   8  0  0
 193 317  15   0   0   1  0  0
 194  78   0   4 103   3  0  0
 195 330   0   5   0   0 15  0
 196 1375   0   6 104   8  0  0
 197 317  14   0   0   1  0  0
 198  78   0   4 105   3  0  0
 199 330   0   5   0   0 14  0
 200 1375   0   6 106   8  0  0
 201 317  22   0   0   1  0  0
 202  78   0   4 107   3  0  0
 203 330   0   5   0   0 22  0
 204 1375   0   6 108   8  0  0
 205 317   4   0   0   1  0  0
 206  78   0   4 109   3  0  0
 207 330   0   5   0   0  4  0
 208 1375   0   6 110   8  0  0
 209 317  21   0   0   1  0  0
 210  78   0   4 111   3  0  0
 211 330   0   5   0   0 21  0
 212 1375   0   6 112   8  0  0
 213 317  18   0   0   1  0  0
 214  78   0   4 113   3  0  0
 215 330   0   5   0   0 18  0
 216 1375   0   6 114   8  0  0
 217 317  10   0   0   1  0  0
 218  78   0   4 115   3  0  0
 219 330   0   5   0   0 10  0
 220 1375   0   6 116   8  0  0
 221 317  20   0   0   1  0  0
 222  78   0   4 117   3  0  0
 223 330   0   5   0   0 20  0
 224 1375   0   6 118   8  0  0
 225 317   9   0   0   1  0  0
 226  78   0   4 119   3  0  0
 227 330   0   5   0   0  9  0
 228 1375   0   6 120   8  0  0
 229 317  19   0   0   1  0  0
 230  78   0   4 121   3  0  0
 231 330   0   5   0   0 19  0
 232 1375   0   6 122   8  0  0
 233 317  18   0   0   1  0  0
 234  78   0   4 123   3  0  0
 235 330   0   5   0   0 18  0
 236 1375   0   6 124   8  0  0
 237 317   5   0   0   1  0  0
 238  78   0   4 125   3  0  0
 239 330   0   5   0   0  5  0
 240 1375   0   6 126   8  0  0
 241 317  17   0   0   1  0  0
 242  78   0   4 127   3  0  0
 243 330   0   5   0   0 17  0
 244 1375   0   6 128   8  0  0
 245 317  13   0   0   1  0  0
 246  78   0   4 129   3  0  0
 247 330   0   5   0   0 13  0
 248 1375   0   6 130   8  0  0
 249 317  16   0   0   1  0  0
 250  78   0   4 131   3  0  0
 251 330   0   5   0   0 16  0
 252 1375   0   6 132   8  0  0
 253 317  15   0   0   1  0  0
 254  78   0   4 133   3  0  0
 255 330   0   5   0   0 15  0
 256 1375   0   6 134   8  0  0
 257 317   1   0   0   1  0  0
 258  78   0   4 135   3  0  0
 259 330   0   5   0   0  1  0
 260 1375   0   6 136   8  0  0
 261 317  14   0   0   1  0  0
 262  78   0   4 137   3  0  0
 263 330   0   5   0   0 14  0
 264 1375   0   6 138   8  0  0
 265 317  13   0   0   1  0  0
 266  78   0   4 139   3  0  0
 267 330   0   5   0   0 13  0
 268 1375   0   6 140   8  0  0
 269 317  12   0   0   1  0  0
 270  78   0   4 141   3  0  0
 271 330   0   5   0   0 12  0
 272 1375   0   6 142   8  0  0
 273 317  11   0   0   1  0  0
 274  78   0   4 143   3  0  0
 275 330   0   5   0   0 11  0
 276 1375   0   6 144   8  0  0
 277 317   6   0   0   1  0  0
 278  78   0   4 145   3  0  0
 279 330   0   5   0   0  6  0
 280 1375   0   6 146   8  0  0
 281 317  10   0   0   1  0  0
 282  78   0   4 147   3  0  0
 283 330   0   5   0   0 10  0
 284 1375   0   6 148   8  0  0
 285 317   9   0   0   1  0  0
 286  78   0   4 149   3  0  0
 287 330   0   5   0   0  9  0
 288 1375   0   6 150   8  0  0
 289 317   8   0   0   1  0  0
 290  78   0   4 151   3  0  0
 291 330   0   5   0   0  8  0
 292 1375   0   6 152   8  0  0
 293 317   7   0   0   1  0  0
 294  78   0   4 153   3  0  0
 295 330   0   5   0   0  7  0
 296 1375   0   6 154   8  0  0
 297 317   6   0   0   1  0  0
 298  78   0   4 155   3  0  0
 299 330   0   5   0   0  6  0
 300 1375   0   6 156   8  0  0
 301 317   5   0   0   1  0  0
 302  78   0   4 157   3  0  0
 303 330   0   5   0   0  5  0
 304 1375   0   6 158   8  0  0
 305 317   4   0   0   1  0  0
 306  78   0   4 159   3  0  0
 307 330   0   5   0   0  4  0
 308 1375   0   6 160   8  0  0
 309 317   3   0   0   1  0  0
[RF]
1      37.2185 1 2 0 100 0 0
2      37.2185 1 2 0 100 0 2.04204
3      37.2185 1 2 0 100 0 6.12611
4      37.2185 1 2 0 100 0 5.96903
5      37.2185 1 2 0 100 0 1.5708
6      37.2185 1 2 0 100 0 5.49779
7      37.2185 1 2 0 100 0 5.18363
8      37.2185 1 2 0 100 0 0.628319
9      37.2185 1 2 0 100 0 4.39823
10      37.2185 1 2 0 100 0 3.92699
11      37.2185 1 2 0 100 0 2.82743
12      37.2185 1 2 0 100 0 2.19911
13      37.2185 1 2 0 100 0 3.61283
14      37.2185 1 2 0 100 0 0.785398
15      37.2185 1 2 0 100 0 1.25664
16      37.2185 1 2 0 100 0 4.55531
17      37.2185 1 2 0 100 0 4.71239
18      37.2185 1 2 0 100 0 0.471239
19      37.2185 1 2 0 100 0 1.41372
20      37.2185 1 2 0 100 0 3.14159
21      37.2185 1 2 0 100 0 5.34071
22      37.2185 1 2 0 100 0 2.35619
23      37.2185 1 2 0 100 0 3.76991
24      37.2185 1 2 0 100 0 2.98451

# Format of trapezoid gradients:
# id amplitude rise flat fall delay
# ..      Hz/m   us   us   us    us
[TRAP]
 1       444444  70 3000  70  30
 2 -1.13636e+06 180  260 180   0
 3 -1.17625e+06 190  390 190   0
 4 -1.18096e+06 190  240 190 160
 5       312500  50 3200  50   0
 6  1.19048e+06 190 1490 190   0
 7  1.13636e+06 180  260 180   0
 8  1.19048e+06 190  930 190   0
 9 -1.12749e+06 180  260 180   0
10  1.12749e+06 180  260 180   0
11 -1.11861e+06 180  260 180   0
12  1.11861e+06 180  260 180   0
13 -1.08507e+06 170  280 170   0
14  1.08507e+06 170  280 170   0
15 -1.07639e+06 170  280 170   0
16  1.07639e+06 170  280 170   0
17 -1.06771e+06 170  280 170   0
18  1.06771e+06 170  280 170   0
19 -1.05903e+06 170  280 170   0
20  1.05903e+06 170  280 170   0
21 -1.05035e+06 170  280 170   0
22  1.05035e+06 170  280 170   0
23 -1.01902e+06 160  300 160   0
24  1.01902e+06 160  300 160   0
25 -1.01053e+06 160  300 160   0
26  1.01053e+06 160  300 160   0
27 -1.00204e+06 160  300 160   0
28  1.00204e+06 160  300 160   0
29      -993546 160  300 160   0
30       993546 160  300 160   0
31      -985054 160  300 160   0
32       985054 160  300 160   0
33      -955785 150  320 150   0
34       955785 150  320 150   0
35      -947473 150  320 150   0
36       947473 150  320 150   0
37      -939162 150  320 150   0
38       939162 150  320 150   0
39      -930851 150  320 150   0
40       930851 150  320 150   0
41      -922540 150  320 150   0
42       922540 150  320 150   0
43      -914229 150  320 150   0
44       914229 150  320 150   0
45      -887044 140  340 140   0
46       887044 140  340 140   0
47      -878906 140  340 140   0
48       878906 140  340 140   0
49      -870768 140  340 140   0
50       870768 140  340 140   0
51      -862630 140  340 140   0
52       862630 140  340 140   0
53      -854492 140  340 140   0
54       854492 140  340 140   0
55      -829082 130  360 130   0
56       829082 130  360 130   0
57      -821110 130  360 130   0
58       821110 130  360 130   0
59      -813138 130  360 130   0
60       813138 130  360 130   0
61      -805166 130  360 130   0
62       805166 130  360 130   0
63      -797194 130  360 130   0
64       797194 130  360 130   0
65      -789222 130  360 130   0
66       789222 130  360 130   0
67      -765625 120  380 120   0
68       765625 120  380 120   0
69      -757812 120  380 120   0
70       757812 120  380 120   0
71      -750000 120  380 120   0
72       750000 120  380 120   0
73      -742187 120  380 120   0
74       742187 120  380 120   0
75      -734375 120  380 120   0
76       734375 120  380 120   0
77      -726562 120  380 120   0
78       726562 120  380 120   0
79      -718750 120  380 120   0
80       718750 120  380 120   0
81      -696998 110  400 110   0
82       696998 110  400 110   0
83      -689338 110  400 110   0
84       689338 110  400 110   0
85      -681679 110  400 110   0
86       681679 110  400 110   0
87      -674020 110  400 110   0
88       674020 110  400 110   0
89      -666360 110  400 110   0
90       666360 110  400 110   0
91      -658701 110  400 110   0
92       658701 110  400 110   0
93      -638522 100  420 100   0
94       638522 100  420 100   0
95      -631010 100  420 100   0
96       631010 100  420 100   0
97      -623498 100  420 100   0
98       623498 100  420 100   0
99      -615986 100  420 100   0
100       615986 100  420 100   0
101      -608474 100  420 100   0
102       608474 100  420 100   0
103      -600962 100  420 100   0
104       600962 100  420 100   0
105      -593450 100  420 100   0
106       593450 100  420 100   0
107      -585937 100  420 100   0
108       585937 100  420 100   0
109      -567512  90  440  90   0
110       567512  90  440  90   0
111      -560142  90  440  90   0
112       560142  90  440  90   0
113      -552771  90  440  90   0
114       552771  90  440  90   0
115      -545401  90  440  90   0
116       545401  90  440  90   0
117      -538031  90  440  90   0
118       538031  90  440  90   0
119      -530660  90  440  90   0
120       530660  90  440  90   0
121      -523290  90  440  90   0
122       523290  90  440  90   0
123      -506366  80  460  80   0
124       506366  80  460  80   0
125      -499132  80  460  80   0
126       499132  80  460  80   0
127      -491898  80  460  80   0
128       491898  80  460  80   0
129      -484664  80  460  80   0
130       484664  80  460  80   0
131      -477431  80  460  80   0
132       477431  80  460  80   0
133      -470197  80  460  80   0
134       470197  80  460  80   0
135      -462963  80  460  80   0
136       462963  80  460  80   0
137      -455729  80  460  80   0
138       455729  80  460  80   0
139      -440341  70  480  70   0
140       440341  70  480  70   0
141      -433239  70  480  70   0
142       433239  70  480  70   0
143      -426136  70  480  70   0
144       426136  70  480  70   0
145      -419034  70  480  70   0
146       419034  70  480  70   0
147      -411932  70  480  70   0
148       411932  70  480  70   0
149      -404830  70  480  70   0
150       404830  70  480  70   0
151      -397727  70  480  70   0
152       397727  70  480  70   0
153      -390625  70  480  70   0
154       390625  70  480  70   0
155      -376674  60  500  60   0
156       376674  60  500  60   0
157      -369699  60  500  60   0
158       369699  60  500  60   0
159      -362723  60  500  60   0
160       362723  60  500  60   0
161      -355748  60  500  60   0
162       355748  60  500  60   0
163      -348772  60  500  60   0
164       348772  60  500  60   0
165      -341797  60  500  60   0
166       341797  60  500  60   0
167      -334821  60  500  60   0
168       334821  60  500  60   0
169      -327846  60  500  60   0
170       327846  60  500  60   0
171      -315241  50  520  50   0
172       315241  50  520  50   0
173      -308388  50  520  50   0
174       308388  50  520  50   0
175      -301535  50  520  50   0
176       301535  50  520  50   0
177      -294682  50  520  50   0
178       294682  50  520  50   0
179      -287829  50  520  50   0
180       287829  50  520  50   0
181      -280976  50  520  50   0
182       280976  50  520  50   0
183      -274123  50  520  50   0
184       274123  50  520  50   0
185      -267270  50  520  50   0
186       267270  50  520  50   0
187      -260417  50  520  50   0
188       260417  50  520  50   0
189      -249192  40  540  40   0
190       249192  40  540  40   0
191      -242457  40  540  40   0
192       242457  40  540  40   0
193      -235722  40  540  40   0
194       235722  40  540  40   0
195      -228987  40  540  40   0
196       228987  40  540  40   0
197      -222252  40  540  40   0
198       222252  40  540  40   0
199      -215517  40  540  40   0
200       215517  40  540  40   0
201      -208782  40  540  40   0
202       208782  40  540  40   0
203      -202047  40  540  40   0
204       202047  40  540  40   0
205      -195312  40  540  40   0
206       195312  40  540  40   0
207      -185381  30  560  30   0
208       185381  30  560  30   0
209      -178761  30  560  30   0
210       178761  30  560  30   0
211      -172140  30  560  30   0
212       172140  30  560  30   0
213      -165519  30  560  30   0
214       165519  30  560  30   0
215      -158898  30  560  30   0
216       158898  30  560  30   0
217      -152278  30  560  30   0
218       152278  30  560  30   0
219      -145657  30  560  30   0
220       145657  30  560  30   0
221      -139036  30  560  30   0
222       139036  30  560  30   0
223      -132415  30  560  30   0
224       132415  30  560  30   0
225      -123698  20  580  20   0
226       123698  20  580  20   0
227      -117187  20  580  20   0
228       117187  20  580  20   0
229      -110677  20  580  20   0
230       110677  20  580  20   0
231      -104167  20  580  20   0
232       104167  20  580  20   0
233     -97656.2  20  580  20   0
234      97656.2  20  580  20   0
235     -91145.8  20  580  20   0
236      91145.8  20  580  20   0
237     -84635.4  20  580  20   0
238      84635.4  20  580  20   0
239       -78125  20  580  20   0
240        78125  20  580  20   0
241     -71614.6  20  580  20   0
242      71614.6  20  580  20   0
243     -65104.2  20  580  20   0
244      65104.2  20  580  20   0
245     -57633.2  10  600  10   0
246      57633.2  10  600  10   0
247     -51229.5  10  600  10   0
248      51229.5  10  600  10   0
249     -44825.8  10  600  10   0
250      44825.8  10  600  10   0
251     -38422.1  10  600  10   0
252      38422.1  10  600  10   0
253     -32018.4  10  600  10   0
254      32018.4  10  600  10   0
255     -25614.8  10  600  10   0
256      25614.8  10  600  10   0
257     -19211.1  10  600  10   0
258      19211.1  10  600  10   0
259     -12807.4  10  600  10   0
260      12807.4  10  600  10   0
261     -6403.69  10  600  10   0
262      6403.69  10  600  10   0
263            0  10  600  10   0
264           -0  10  600  10   0

# Format of ADC events:
# id num dwell delay freq phase
# ..  ..    ns    us   Hz   rad
[ADC]
1 256 12500 50 0 0
2 256 12500 50 0 2.04204
3 256 12500 50 0 6.12611
4 256 12500 50 0 5.96903
5 256 12500 50 0 1.5708
6 256 12500 50 0 5.49779
7 256 12500 50 0 5.18363
8 256 12500 50 0 0.628319
9 256 12500 50 0 4.39823
10 256 12500 50 0 3.92699
11 256 12500 50 0 2.82743
12 256 12500 50 0 2.19911
13 256 12500 50 0 3.61283
14 256 12500 50 0 0.785398
15 256 12500 50 0 1.25664
16 256 12500 50 0 4.55531
17 256 12500 50 0 4.71239
18 256 12500 50 0 0.471239
19 256 12500 50 0 1.41372
20 256 12500 50 0 3.14159
21 256 12500 50 0 5.34071
22 256 12500 50 0 2.35619
23 256 12500 50 0 3.76991
24 256 12500 50 0 2.98451

# Sequence Shapes
[SHAPES]

shape_id 1
num_samples 3000
5.33512061e-05
0.000160161335
0.000267116839
0.000374219827
0.000481472412
0.000588876712
0.00069643485
0.000804148955
0.000912021157
0.00102005359
0.0011282484
0.00123660773
0.00134513373
0.00145382854
0.00156269432
0.00167173322
0.00178094741
0.00189033905
0.0019999103
0.00210966333
0.00221960031
0.00232972341
0.00244003479
0.00255053664
0.00266123112
0.00277212042
0.0028832067
0.00299449215
0.00310597893
0.00321766924
0.00332956523
0.0034416691
0.00355398301
0.00366650915
0.00377924967
0.00389220677
0.0040053826
0.00411877934
0.00423239915
0.00434624421
0.00446031667
0.0045746187
0.00468915245
0.00480392009
0.00491892375
0.0050341656
0.00514964778
0.00526537242
0.00538134167
0.00549755767
0.00561402253
0.00573073839
0.00584770736
0.00596493156
0.0060824131
0.00620015408
0.0063181566
0.00643642275
0.00655495462
0.00667375429
0.00679282382
0.0069121653
0.00703178077
0.00715167228
0.00727184189
0.00739229163
0.00751302352
0.00763403959
0.00775534184
0.00787693229
0.00799881293
0.00812098573
0.00824345268
0.00836621575
0.00848927689
0.00861263804
0.00873630115
0.00886026813
0.00898454092
0.0091091214
0.00923401147
0.00935921303
0.00948472792
0.00961055802
0.00973670518
0.00986317122
0.00998995796
0.0101170672
0.0102445008
0.0103722605
0.010500348
0.0106287652
0.0107575137
0.0108865953
0.0110160118
0.0111457647
0.0112758559
0.0114062868
0.0115370594
0.011668175
0.0117996355
0.0119314423
0.0120635972
0.0121961015
0.012328957
0.0124621652
0.0125957275
0.0127296456
0.0128639208
0.0129985546
0.0131335486
0.0132689041
0.0134046226
0.0135407055
0.013677154
0.0138139698
0.0139511539
0.0140887078
0.0142266329
0.0143649302
0.0145036012
0.0146426471
0.0147820691
0.0149218683
0.0150620461
0.0152026035
0.0153435416
0.0154848617
0.0156265647
0.0157686518
0.015911124
0.0160539824
0.0161972279
0.0163408615
0.0164848842
0.016629297
0.0167741007
0.0169192962
0.0170648843
0.0172108661
0.0173572421
0.0175040133
0.0176511804
0.0177987441
0.0179467052
0.0180950644
0.0182438222
0.0183929794
0.0185425366
0.0186924943
0.0188428531
0.0189936136
0.0191447761
0.0192963414
0.0194483097
0.0196006814
0.0197534571
0.019906637
0.0200602216
0.020214211
0.0203686056
0.0205234057
0.0206786114
0.020834223
0.0209902406
0.0211466644
0.0213034945
0.0214607308
0.0216183736
0.0217764228
0.0219348784
0.0220937403
0.0222530084
0.0224126827
0.0225727631
0.0227332492
0.022894141
0.0230554382
0.0232171406
0.0233792478
0.0235417594
0.0237046752
0.0238679948
0.0240317176
0.0241958433
0.0243603714
0.0245253012
0.0246906323
0.0248563641
0.0250224958
0.0251890269
0.0253559566
0.0255232843
0.025691009
0.0258591301
0.0260276467
0.0261965579
0.0263658627
0.0265355603
0.0267056496
0.0268761297
0.0270469995
0.0272182578
0.0273899036
0.0275619356
0.0277343527
0.0279071537
0.0280803372
0.028253902
0.0284278466
0.0286021697
0.0287768699
0.0289519457
0.0291273956
0.029303218
0.0294794114
0.0296559741
0.0298329045
0.0300102009
0.0301878615
0.0303658846
0.0305442683
0.0307230109
0.0309021103
0.0310815647
0.0312613721
0.0314415304
0.0316220377
0.0318028918
0.0319840905
0.0321656318
0.0323475134
0.032529733
0.0327122883
0.032895177
0.0330783967
0.033261945
0.0334458194
0.0336300174
0.0338145364
0.033999374
0.0341845274
0.0343699939
0.0345557709
0.0347418555
0.0349282451
0.0351149367
0.0353019274
0.0354892144
0.0356767946
0.035864665
0.0360528226
0.0362412643
0.036429987
0.0366189873
0.0368082622
0.0369978083
0.0371876223
0.0373777009
0.0375680406
0.037758638
0.0379494896
0.0381405919
0.0383319412
0.038523534
0.0387153666
0.0389074352
0.0390997361
0.0392922655
0.0394850196
0.0396779943
0.0398711859
0.0400645904
0.0402582036
0.0404520215
0.04064604
0.0408402549
0.0410346621
0.0412292572
0.041424036
0.0416189941
0.0418141271
0.0420094306
0.0422049002
0.0424005311
0.042596319
0.0427922591
0.0429883469
0.0431845775
0.0433809463
0.0435774484
0.043774079
0.0439708332
0.044167706
0.0443646925
0.0445617876
0.0447589862
0.0449562833
0.0451536736
0.0453511519
0.0455487129
0.0457463514
0.045944062
0.0461418393
0.0463396777
0.0465375719
0.0467355163
0.0469335053
0.0471315333
0.0473295945
0.0475276832
0.0477257938
0.0479239202
0.0481220568
0.0483201975
0.0485183364
0.0487164674
0.0489145847
0.0491126819
0.0493107531
0.0495087919
0.0497067922
0.0499047476
0.0501026519
0.0503004986
0.0504982813
0.0506959936
0.0508936289
0.0510911807
0.0512886424
0.0514860072
0.0516832685
0.0518804196
0.0520774536
0.0522743638
0.0524711431
0.0526677847
0.0528642817
0.0530606269
0.0532568133
0.0534528338
0.0536486812
0.0538443484
0.054039828
0.0542351127
0.0544301953
0.0546250683
0.0548197242
0.0550141557
0.0552083552
0.055402315
0.0555960276
0.0557894854
0.0559826805
0.0561756053
0.056368252
0.0565606126
0.0567526794
0.0569444444
0.0571358996
0.057327037
0.0575178486
0.0577083261
0.0578984615
0.0580882466
0.058277673
0.0584667326
0.0586554171
0.0588437179
0.0590316268
0.0592191352
0.0594062346
0.0595929165
0.0597791724
0.0599649935
0.0601503711
0.0603352967
0.0605197613
0.0607037563
0.0608872727
0.0610703017
0.0612528342
0.0614348615
0.0616163743
0.0617973638
0.0619778207
0.0621577359
0.0623371003
0.0625159045
0.0626941395
0.0628717957
0.063048864
0.0632253349
0.0634011989
0.0635764466
0.0637510686
0.0639250551
0.0640983967
0.0642710837
0.0644431065
0.0646144553
0.0647851204
0.0649550919
0.0651243601
0.0652929152
0.0654607471
0.0656278459
0.0657942017
0.0659598045
0.0661246441
0.0662887106
0.0664519936
0.0666144832
0.066776169
0.0669370408
0.0670970884
0.0672563014
0.0674146694
0.0675721821
0.0677288291
0.0678845998
0.0680394838
0.0681934705
0.0683465494
0.0684987098
0.0686499411
0.0688002327
0.0689495738
0.0690979537
0.0692453615
0.0693917866
0.0695372179
0.0696816448
0.0698250561
0.0699674411
0.0701087887
0.0702490879
0.0703883276
0.0705264968
0.0706635844
0.0707995792
0.07093447
0.0710682457
0.071200895
0.0713324067
0.0714627694
0.0715919719
0.0717200028
0.0718468506
0.071972504
0.0720969516
0.0722201818
0.0723421832
0.0724629442
0.0725824532
0.0727006988
0.0728176692
0.0729333529
0.0730477381
0.0731608132
0.0732725665
0.0733829861
0.0734920604
0.0735997774
0.0737061255
0.0738110928
0.0739146673
0.0740168372
0.0741175905
0.0742169153
0.0743147997
0.0744112315
0.0745061989
0.0745996898
0.074691692
0.0747821936
0.0748711824
0.0749586462
0.075044573
0.0751289505
0.0752117665
0.0752930089
0.0753726654
0.0754507237
0.0755271716
0.0756019967
0.0756751868
0.0757467295
0.0758166125
0.0758848234
0.0759513498
0.0760161793
0.0760792995
0.0761406979
0.076200362
0.0762582795
0.0763144379
0.0763688245
0.0764214269
0.0764722326
0.076521229
0.0765684036
0.0766137437
0.0766572368
0.0766988703
0.0767386316
0.0767765079
0.0768124868
0.0768465554
0.0768787013
0.0769089116
0.0769371737
0.076963475
0.0769878026
0.0770101438
0.077030486
0.0770488165
0.0770651223
0.0770793909
0.0770916094
0.077101765
0.0771098451
0.0771158367
0.0771197271
0.0771215035
0.0771211531
0.0771186631
0.0771140207
0.077107213
0.0770982273
0.0770870506
0.0770736701
0.0770580731
0.0770402467
0.0770201779
0.0769978541
0.0769732623
0.0769463896
0.0769172233
0.0768857505
0.0768519583
0.0768158339
0.0767773643
0.0767365369
0.0766933386
0.0766477567
0.0765997784
0.0765493907
0.0764965808
0.0764413358
0.0763836431
0.0763234896
0.0762608626
0.0761957493
0.0761281368
0.0760580122
0.0759853629
0.075910176
0.0758324387
0.0757521382
0.0756692617
0.0755837964
0.0754957297
0.0754050486
0.0753117405
0.0752157926
0.0751171921
0.0750159265
0.0749119829
0.0748053486
0.0746960109
0.0745839573
0.0744691749
0.0743516512
0.0742313734
0.074108329
0.0739825054
0.0738538899
0.07372247
0.073588233
0.0734511665
0.0733112578
0.0731684945
0.0730228641
0.0728743539
0.0727229516
0.0725686447
0.0724114208
0.0722512674
0.0720881722
0.0719221226
0.0717531065
0.0715811113
0.0714061249
0.0712281348
0.0710471289
0.0708630948
0.0706760203
0.0704858932
0.0702927013
0.0700964323
0.0698970743
0.069694615
0.0694890423
0.0692803441
0.0690685085
0.0688535234
0.0686353768
0.0684140566
0.0681895511
0.0679618482
0.067730936
0.0674968028
0.0672594366
0.0670188257
0.0667749582
0.0665278225
0.0662774069
0.0660236995
0.0657666889
0.0655063633
0.0652427112
0.0649757211
0.0647053813
0.0644316804
0.064154607
0.0638741496
0.0635902969
0.0633030374
0.0630123599
0.062718253
0.0624207056
0.0621197064
0.0618152443
0.061507308
0.0611958866
0.0608809689
0.060562544
0.0602406008
0.0599151284
0.0595861158
0.0592535524
0.0589174271
0.0585777293
0.0582344481
0.0578875729
0.0575370931
0.057182998
0.056825277
0.0564639196
0.0560989154
0.0557302539
0.0553579247
0.0549819174
0.0546022218
0.0542188276
0.0538317245
0.0534409025
0.0530463514
0.0526480611
0.0522460216
0.0518402229
0.0514306552
0.0510173085
0.050600173
0.0501792389
0.0497544965
0.0493259362
0.0488935483
0.0484573232
0.0480172514
0.0475733235
0.0471255301
0.0466738617
0.046218309
0.0457588629
0.0452955141
0.0448282535
0.044357072
0.0438819605
0.04340291
0.0429199118
0.0424329568
0.0419420363
0.0414471415
0.0409482637
0.0404453944
0.0399385249
0.0394276467
0.0389127514
0.0383938305
0.0378708757
0.0373438788
0.0368128315
0.0362777257
0.0357385533
0.0351953062
0.0346479766
0.0340965564
0.0335410379
0.0329814132
0.0324176747
0.0318498147
0.0312778257
0.0307017
0.0301214303
0.0295370092
0.0289484293
0.0283556834
0.0277587643
0.0271576649
0.0265523781
0.0259428969
0.0253292145
0.024711324
0.0240892186
0.0234628916
0.0228323363
0.0221975462
0.0215585148
0.0209152357
