# Pulseq sequence file
# Created by MATLAB mr toolbox

[VERSION]
major 1
minor 4
revision 0

[DEFINITIONS]
AdcRasterTime 1e-07 
BlockDurationRaster 1e-05 
FOV 0.02 0.03 0.04 
GradientRasterTime 1e-05 
Name press 
RadiofrequencyRasterTime 1e-06 
TotalDuration 0.40002 

# Format of blocks:
# NUM DUR RF  GX  GY  GZ  ADC  EXT
[BLOCKS]
1 314   1   1   0   0  0  0
2 100   0   0   0   0  0  0
3 518   2   4   2   3  0  0
4 5261   0   0   0   0  0  0
5 958   3   6   6   5  0  0
6 25604   0   0   0   0  1  0
7 7247   0   0   0   0  0  0

# Format of RF events:
# id amplitude mag_id phase_id time_shape_id delay freq phase
# ..        Hz   ....     ....          ....    us   Hz   rad
[RF]
1       665.62 1 2 0 100 0 0
2      1317.65 3 4 0 1090 0 1.5708
3      1317.65 3 4 0 3290 0 1.5708

# Format of arbitrary gradients:
#   time_shape_id of 0 means default timing (stepping with grad_raster starting at 1/2 of grad_raster)
# id amplitude amp_shape_id time_shape_id delay
# ..      Hz/m       ..         ..          us
[GRADIENTS]
2       638471 5 6 10
3       638298 7 8 0
4       638298 9 10 0
5       637487 11 12 10
6       636943 7 13 0

# Format of trapezoid gradients:
# id amplitude rise flat fall delay
# ..      Hz/m   us   us   us    us
[TRAP]
 1       133333  40 3000  40  60

# Format of ADC events:
# id num dwell delay freq phase
# ..  ..    ns    us   Hz   rad
[ADC]
1 4096 62500 20 0 0

# Sequence Shapes
[SHAPES]

shape_id 1
num_samples 3000
9.14157145e-11
2.46981184e-09
1.14413976e-08
3.14139002e-08
6.68041831e-08
1.22037215e-07
2.01545036e-07
3.09765719e-07
4.51142329e-07
6.30121879e-07
8.51154284e-07
1.11869131e-06
1.43718552e-06
1.81108922e-06
2.24485341e-06
2.7429267e-06
3.30975429e-06
3.94977686e-06
4.66742954e-06
5.46714082e-06
6.35333151e-06
7.33041363e-06
8.40278939e-06
9.57485006e-06
1.0850975e-05
1.22355304e-05
1.37328683e-05
1.53473259e-05
1.70832236e-05
1.89448649e-05
2.09365346e-05
2.30624981e-05
2.53270003e-05
2.77342644e-05
3.02884909e-05
3.29938566e-05
3.58545133e-05
3.8874587e-05
4.20581767e-05
4.54093535e-05
4.89321592e-05
5.26306055e-05
5.6508673e-05
6.05703098e-05
6.4819431e-05
6.9259917e-05
7.3895613e-05
7.87303276e-05
8.37678321e-05
8.9011859e-05
9.44661014e-05
0.000100134212
0.000106019801
0.000112126437
0.000118457644
0.000125016903
0.000131807647
0.000138833264
0.000146097093
0.000153602425
0.000161352503
0.000169350516
0.000177599603
0.000186102851
0.000194863293
0.000203883908
0.000213167616
0.000222717286
0.000232535726
0.000242625687
0.00025298986
0.000263630875
0.000274551304
0.000285753654
0.00029724037
0.000309013834
0.000321076363
0.000333430206
0.00034607755
0.000359020511
0.000372261139
0.000385801413
0.000399643245
0.000413788473
0.000428238867
0.000442996122
0.000458061861
0.000473437633
0.000489124912
0.000505125098
0.000521439512
0.000538069401
0.000555015933
0.000572280198
0.000589863205
0.000607765886
0.000625989091
0.000644533589
0.000663400066
0.000682589127
0.000702101293
0.000721937001
0.000742096603
0.000762580369
0.000783388478
0.000804521026
0.000825978023
0.000847759388
0.000869864955
0.000892294467
0.00091504758
0.000938123859
0.000961522779
0.000985243724
0.00100928599
0.00103364877
0.00105833118
0.00108333224
0.00110865087
0.00113428589
0.00116023606
0.0011865
0.00121307626
0.0012399633
0.00126715948
0.00129466305
0.00132247218
0.00135058495
0.00137899931
0.00140771315
0.00143672425
0.00146603028
0.00149562884
0.00152551739
0.00155569334
0.00158615397
0.00161689647
0.00164791793
0.00167921534
0.0017107856
0.0017426255
0.00177473175
0.00180710092
0.00183972953
0.00187261396
0.00190575052
0.0019391354
0.00197276471
0.00200663444
0.0020407405
0.00207507868
0.00210964469
0.00214443412
0.00217944248
0.00221466518
0.00225009752
0.00228573471
0.00232157184
0.00235760394
0.00239382591
0.00243023256
0.00246681861
0.00250357868
0.00254050728
0.00257759884
0.00261484767
0.00265224802
0.002689794
0.00272747966
0.00276529894
0.00280324569
0.00284131364
0.00287949646
0.00291778772
0.00295618087
0.00299466929
0.00303324627
0.00307190499
0.00311063855
0.00314943997
0.00318830215
0.00322721792
0.00326618002
0.00330518109
0.00334421369
0.0033832703
0.0034223433
0.00346142498
0.00350050755
0.00353958315
0.00357864381
0.0036176815
0.00365668807
0.00369565534
0.003734575
0.00377343869
0.00381223796
0.00385096428
0.00388960903
0.00392816354
0.00396661905
0.00400496671
0.00404319761
0.00408130276
0.00411927311
0.00415709952
0.00419477279
0.00423228365
0.00426962275
0.00430678068
0.00434374796
0.00438051505
0.00441707234
0.00445341015
0.00448951875
0.00452538834
0.00456100905
0.00459637097
0.00463146412
0.00466627847
0.00470080391
0.00473503031
0.00476894747
0.00480254512
0.00483581296
0.00486874065
0.00490131776
0.00493353386
0.00496537844
0.00499684095
0.00502791081
0.0050585774
0.00508883002
0.00511865798
0.00514805053
0.00517699687
0.00520548618
0.00523350761
0.00526105026
0.00528810321
0.00531465552
0.00534069618
0.00536621421
0.00539119856
0.00541563817
0.00543952197
0.00546283885
0.00548557768
0.00550772733
0.00552927664
0.00555021444
0.00557052953
0.00559021073
0.00560924681
0.00562762657
0.00564533878
0.0056623722
0.0056787156
0.00569435774
0.00570928739
0.00572349331
0.00573696425
0.00574968899
0.00576165631
0.00577285499
0.00578327381
0.00579290158
0.00580172711
0.00580973924
0.0058169268
0.00582327866
0.00582878371
0.00583343084
0.00583720898
0.00584010709
0.00584211413
0.00584321912
0.0058434111
0.00584267912
0.00584101229
0.00583839974
0.00583483066
0.00583029425
0.00582477976
0.0058182765
0.0058107738
0.00580226104
0.00579272767
0.00578216316
0.00577055706
0.00575789895
0.00574417848
0.00572938535
0.00571350933
0.00569654022
0.00567846793
0.00565928239
0.00563897362
0.00561753172
0.00559494683
0.00557120918
0.00554630907
0.00552023687
0.00549298305
0.00546453812
0.00543489272
0.00540403753
0.00537196334
0.00533866101
0.00530412152
0.00526833589
0.00523129529
0.00519299093
0.00515341416
0.0051125564
0.00507040919
0.00502696415
0.00498221302
0.00493614764
0.00488875996
0.00484004203
0.00478998602
0.00473858422
0.00468582901
0.00463171291
0.00457622855
0.00451936868
0.00446112616
0.00440149399
0.0043404653
0.00427803332
0.00421419144
0.00414893315
0.00408225211
0.00401414209
0.00394459698
0.00387361084
0.00380117786
0.00372729237
0.00365194882
0.00357514185
0.0034968662
0.0034171168
0.00333588869
0.0032531771
0.00316897737
0.00308328504
0.00299609577
0.0029074054
0.00281720992
0.00272550548
0.0026322884
0.00253755517
0.00244130241
0.00234352697
0.0022442258
0.00214339608
0.00204103512
0.00193714042
0.00183170967
0.00172474071
0.00161623158
0.00150618047
0.0013945858
0.00128144612
0.00116676021
0.00105052699
0.00093274561
0.000813415379
0.000692535808
0.000570106596
0.000446127636
0.000320599012
0.000193521005
6.48940929e-05
6.5281051e-05
0.000197003553
0.000330272341
0.000465086139
0.000601443471
0.000739342656
0.000878781809
0.00101975884
0.00116227144
0.00130631712
0.00145189315
0.00159899661
0.00174762436
0.00189777304
0.00204943911
0.00220261876
0.00235730802
0.00251350267
0.00267119828
0.0028303902
0.00299107357
0.0031532433
0.00331689409
0.0034820204
0.00364861649
0.00381667638
0.00398619386
0.00415716251
0.00432957569
0.00450342652
0.00467870788
0.00485541246
0.00503353268
0.00521306076
0.00539398869
0.0055763082
0.00576001082
0.00594508785
0.00613153032
0.00631932908
0.00650847471
0.00669895756
0.00689076777
0.00708389522
0.00727832958
0.00747406025
0.00767107644
0.00786936708
0.0080689209
0.00826972638
0.00847177175
0.00867504504
0.008879534
0.00908522618
0.00929210888
0.00950016915
0.00970939383
0.00991976949
0.0101312825
0.010343919
0.0105576648
0.0107725056
0.0109884268
0.0112054135
0.0114234507
0.0116425232
0.0118626152
0.0120837112
0.012305795
0.0125288505
0.0127528611
0.0129778102
0.0132036808
0.0134304557
0.0136581175
0.0138866485
0.014116031
0.0143462467
0.0145772774
0.0148091045
0.0150417091
0.0152750723
0.0155091749
0.0157439972
0.0159795196
0.0162157223
0.0164525849
0.0166900872
0.0169282085
0.017166928
0.0174062246
0.0176460771
0.017886464
0.0181273635
0.0183687538
0.0186106126
0.0188529177
0.0190956464
0.019338776
0.0195822834
0.0198261454
0.0200703387
0.0203148395
0.0205596241
0.0208046683
0.021049948
0.0212954387
0.0215411157
0.0217869541
0.0220329289
0.0222790149
0.0225251866
0.0227714184
0.0230176843
0.0232639585
0.0235102146
0.0237564263
0.0240025669
0.0242486097
0.0244945277
0.0247402939
0.0249858807
0.0252312609
0.0254764066
0.02572129
0.0259658832
0.0262101578
0.0264540857
0.0266976381
0.0269407865
0.027183502
0.0274257556
0.0276675181
0.0279087602
0.0281494524
0.028389565
0.0286290684
0.0288679326
0.0291061275
0.0293436228
0.0295803884
0.0298163936
0.0300516078
0.0302860003
0.0305195402
0.0307521965
0.0309839381
0.0312147336
0.0314445517
0.031673361
0.0319011297
0.0321278261
0.0323534185
0.0325778749
0.0328011632
0.0330232513
0.033244107
0.0334636978
0.0336819913
0.0338989551
0.0341145565
0.0343287627
0.0345415411
0.0347528588
0.0349626827
0.0351709799
0.0353777174
0.0355828619
0.0357863803
0.0359882392
0.0361884054
0.0363868454
0.0365835259
0.0367784132
0.036971474
0.0371626745
0.0373519813
0.0375393605
0.0377247786
0.0379082018
0.0380895964
0.0382689287
0.0384461647
0.0386212708
0.0387942131
0.0389649578
0.039133471
0.039299719
0.0394636678
0.0396252837
0.0397845328
0.0399413813
0.0400957955
0.0402477414
0.0403971855
0.0405440939
0.0406884329
0.0408301688
0.0409692681
0.041105697
0.0412394222
0.0413704099
0.0414986269
0.0416240396
0.0417466147
0.0418663189
0.041983119
0.0420969818
0.0422078743
0.0423157634
0.0424206162
0.0425223998
0.0426210815
0.0427166287
0.0428090086
0.0428981889
0.0429841372
0.0430668211
0.0431462086
0.0432222675
0.043294966
0.0433642722
0.0434301544
0.0434925811
0.0435515209
0.0436069424
0.0436588145
0.0437071061
0.0437517865
0.0437928249
0.0438301908
0.0438638537
0.0438937834
0.04391995
0.0439423233
0.0439608738
0.043975572
0.0439863883
0.0439932938
0.0439962593
0.0439952561
0.0439902557
0.0439812295
0.0439681495
0.0439509877
0.0439297163
0.0439043077
0.0438747347
0.0438409701
0.0438029872
0.0437607592
0.0437142597
0.0436634626
0.0436083421
0.0435488723
0.043485028
0.043416784
0.0433441153
0.0432669974
0.0431854059
0.0430993167
0.0430087059
0.0429135501
0.042813826
0.0427095106
0.0426005813
0.0424870157
0.0423687916
0.0422458874
0.0421182815
0.0419859528
0.0418488804
0.0417070437
0.0415604227
0.0414089973
0.0412527481
0.0410916557
0.0409257014
0.0407548664
0.0405791327
0.0403984823
0.0402128978
0.0400223619
0.0398268579
0.0396263693
0.03942088
0.0392103743
0.0389948369
0.0387742527
0.0385486073
0.0383178863
0.038082076
0.0378411628
0.0375951339
0.0373439764
0.0370876782
0.0368262273
0.0365596124
0.0362878225
0.0360108467
0.0357286751
0.0354412976
0.0351487051
0.0348508884
0.0345478392
0.0342395493
0.033926011
0.0336072171
0.0332831608
0.0329538358
0.0326192361
0.0322793564
0.0319341916
0.0315837372
0.0312279891
0.0308669436
0.0305005977
0.0301289485
0.029751994
0.0293697322
0.0289821619
0.0285892824
0.0281910933
0.0277875946
0.0273787872
0.0269646721
0.0265452508
0.0261205256
0.025690499
0.0252551741
0.0248145545
0.0243686443
0.0239174481
0.023460971
0.0229992186
0.0225321971
0.022059913
0.0215823736
0.0210995866
0.02061156
0.0201183026
0.0196198237
0.0191161329
0.0186072407
0.0180931578
0.0175738956
0.0170494658
0.0165198811
0.0159851542
0.0154452987
0.0149003287
0.0143502586
0.0137951037
0.0132348795
0.0126696022
0.0120992887
0.0115239562
0.0109436226
0.0103583062
0.009768026
0.00917280155
0.00857265288
0.00796760062
0.00735766594
0.00674287057
0.00612323682
0.00549878753
0.00486954613
0.00423553659
0.00359678346
0.00295331185
0.00230514743
0.00165231644
0.000994845673
0.000332762517
0.000333905094
0.00100512865
0.00168087908
0.00236112673
0.00304584139
0.00373499227
0.00442854802
0.0051264767
0.00582874583
0.00653532233
0.00724617256
0.00796126232
0.00868055682
0.0094040207
0.010131618
0.0108633124
0.0115990666
0.012338843
0.0130826036
0.0138303094
0.0145819211
0.0153373989
0.0160967021
0.0168597899
0.0176266205
0.0183971517
0.0191713408
0.0199491446
0.020730519
0.0215154196
0.0223038015
0.023095619
0.0238908261
0.0246893759
0.0254912213
0.0262963143
0.0271046068
0.0279160496
0.0287305934
0.029548188
0.030368783
0.031192327
0.0320187685
0.0328480553
0.0336801344
0.0345149526
0.035352456
0.0361925902
0.0370353002
0.0378805305
0.0387282252
0.0395783275
0.0404307805
0.0412855265
0.0421425073
0.0430016643
0.0438629382
0.0447262693
0.0455915974
0.0464588617
0.047328001
0.0481989533
0.0490716565
0.0499460477
0.0508220637
0.0516996405
0.0525787138
0.0534592189
0.0543410905
0.0552242628
0.0561086694
0.0569942436
0.0578809181
0.0587686252
0.0596572968
0.060546864
0.0614372579
0.0623284087
0.0632202463
0.0641127003
0.0650056995
0.0658991727
0.0667930478
0.0676872526
0.0685817141
0.0694763593
0.0703711144
0.0712659053
0.0721606576
0.0730552961
0.0739497457
0.0748439305
0.0757377743
0.0766312004
0.077524132
0.0784164915
0.0793082011
0.0801991827
0.0810893577
0.0819786471
0.0828669715
0.0837542512
0.0846404061
0.0855253558
0.0864090195
0.0872913158
0.0881721634
0.0890514803
0.0899291843
0.0908051929
0.0916794231
0.0925517917
0.0934222152
0.0942906097
0.095156891
0.0960209746
0.0968827758
0.0977422094
0.0985991901
0.0994536321
0.10030545
0.101154556
0.102000865
0.102844291
0.103684744
0.10452214
0.105356389
0.106187405
0.107015099
0.107839383
0.108660168
0.109477365
0.110290887
0.111100643
0.111906544
0.1127085
0.113506423
0.114300221
0.115089806
0.115875085
0.11665597
0.117432369
0.118204191
0.118971346
0.119733742
0.120491289
0.121243894
0.121991466
0.122733914
0.123471146
0.12420307
0.124929594
0.125650625
0.126366073
0.127075844
0.127779846
0.128477987
0.129170174
0.129856315
0.130536317
0.131210087
0.131877534
0.132538563
0.133193083
0.133841001
0.134482223
0.135116657
0.135744211
0.136364791
0.136978306
0.137584661
0.138183764
0.138775523
0.139359845
0.139936638
0.140505808
0.141067263
0.141620912
0.142166661
0.142704419
0.143234092
0.14375559
0.144268819
0.144773689
0.145270108
0.145757983
0.146237223
0.146707738
0.147169435
0.147622224
0.148066013
0.148500713
0.148926232
0.149342479
0.149749366
0.150146801
0.150534695
0.150912959
0.151281502
0.151640236
0.151989071
0.15232792
0.152656693
0.152975303
0.15328366
0.153581679
0.15386927
0.154146348
0.154412824
0.154668613
0.154913629
0.155147784
0.155370994
0.155583174
0.155784237
0.155974101
0.156152679
0.156319889
0.156475646
0.156619867
0.15675247
0.156873372
0.15698249
0.157079744
0.157165051
0.15723833
0.157299502
0.157348486
0.157385203
0.157409572
0.157421516
0.157420955
0.157407813
0.157382011
0.157343473
0.157292121
0.157227881
0.157150677
0.157060433
0.156957075
0.156840528
0.156710721
0.156567578
0.156411029
0.156241001
0.156057422
0.155860222
0.155649331
0.155424679
0.155186197
0.154933816
0.154667468
0.154387086
0.154092603
0.153783953
0.15346107
0.15312389
0.152772348
0.15240638
0.152025924
0.151630916
0.151221296
0.150797001
0.150357972
0.149904149
0.149435472
0.148951884
0.148453326
0.147939741
0.147411074
0.146867267
0.146308267
0.14573402
0.14514447
0.144539567
0.143919258
0.143283491
0.142632216
0.141965383
0.141282943
0.140584848
0.13987105
0.139141503
0.13839616
0.137634976
0.136857907
0.13606491
0.135255941
0.134430959
0.133589921
0.132732789
0.131859523
0.130970082
0.130064431
0.129142531
0.128204347
0.127249843
0.126278985
0.125291739
0.124288071
0.123267951
0.122231348
0.12117823
0.120108569
0.119022336
0.117919504
0.116800047
0.115663937
0.114511152
0.113341665
0.112155456
0.110952501
0.10973278
0.108496271
0.107242957
0.105972818
0.104685836
0.103381997
0.102061283
0.10072368
0.0993691748
0.0979977544
0.0966094071
0.095204122
0.0937818894
0.0923427002
0.0908865467
0.0894134219
0.0879233198
0.0864162356
0.0848921651
0.0833511054
0.0817930545
0.0802180113
0.0786259759
0.0770169493
0.0753909333
0.0737479311
0.0720879465
0.0704109846
0.0687170514
0.0670061538
0.0652783001
0.0635334991
0.061771761
0.0599930969
0.0581975188
0.0563850401
0.0545556747
0.052709438
0.0508463461
0.0489664163
0.047069667
0.0451561175
0.0432257882
0.0412787004
0.0393148767
0.0373343405
0.0353371164
0.03332323
0.0312927079
0.0292455778
0.0271818685
0.0251016096
0.0230048321
0.0208915678
0.0187618496
0.0166157115
0.0144531885
0.0122743168
0.0100791334
0.00786767659
0.0056399855
0.00339610047
0.00113606284
0.00114008501
0.00343229962
0.00574053649
0.00806475008
0.0104048938
0.0127609199
0.0151327799
0.0175204238
0.0199238009
0.0223428594
0.0247775462
0.0272278076
0.0296935885
0.0321748328
0.0346714835
0.0371834825
0.0397107705
0.0422532873
0.0448109718
0.0473837616
0.0499715933
0.0525744027
0.0551921243
0.0578246918
0.0604720375
0.0631340932
0.0658107892
0.068502055
0.0712078191
0.0739280089
0.0766625507
0.0794113701
0.0821743913
0.0849515378
0.0877427319
0.090547895
0.0933669473
0.0961998084
0.0990463965
0.101906629
0.104780422
0.107667692
0.110568352
0.113482315
0.116409496
0.119349804
0.122303151
0.125269445
0.128248596
0.131240512
0.134245098
0.13726226
0.140291903
0.143333932
0.146388248
0.149454754
0.152533351
0.155623939
0.158726416
0.161840682
0.164966633
0.168104167
0.171253177
0.174413559
0.177585207
0.180768014
0.183961871
0.187166669
0.190382298
0.193608648
0.196845608
0.200093064
0.203350903
0.206619012
0.209897275
0.213185576
0.216483799
0.219791826
0.223109539
0.226436819
0.229773545
0.233119597
0.236474854
0.239839192
0.243212489
0.246594621
0.249985463
0.25338489
0.256792775
0.260208992
0.263633412
0.267065907
0.270506348
0.273954605
0.277410547
0.280874042
0.28434496
0.287823166
0.291308527
0.29480091
0.298300178
0.301806197
0.305318831
0.308837942
0.312363392
0.315895044
0.319432759
0.322976397
0.326525818
0.330080882
0.333641447
0.33720737
0.340778511
0.344354724
0.347935868
0.351521796
0.355112366
0.358707431
0.362306844
0.365910461
0.369518133
0.373129714
0.376745055
0.380364007
0.383986422
0.387612149
0.39124104
0.394872943
0.398507707
0.402145182
0.405785214
0.409427652
0.413072343
0.416719134
0.420367872
0.424018401
0.427670568
0.431324219
0.434979197
0.438635347
0.442292514
0.445950541
0.449609272
0.453268549
0.456928216
0.460588114
0.464248087
0.467907975
0.471567621
0.475226865
0.478885548
0.482543512
0.486200596
0.489856642
0.493511488
0.497164975
0.500816943
0.50446723
0.508115675
0.511762119
0.515406398
0.519048353
0.522687822
0.526324642
0.529958652
0.533589691
0.537217595
0.540842203
0.544463353
0.548080882
0.551694628
0.555304427
0.558910119
0.562511539
0.566108525
0.569700915
0.573288546
0.576871254
0.580448878
0.584021254
0.58758822
0.591149614
0.594705271
0.59825503
0.601798729
0.605336204
0.608867293
0.612391834
0.615909664
0.619420623
0.622924546
0.626421273
0.629910642
0.633392491
0.636866659
0.640332983
0.643791305
0.647241461
0.650683292
0.654116637
0.657541335
0.660957227
0.664364153
0.667761952
0.671150466
0.674529536
0.677899002
0.681258706
0.68460849
0.687948196
0.691277666
0.694596743
0.697905269
0.701203089
0.704490045
0.707765983
0.711030745
0.714284178
0.717526126
0.720756434
0.72397495
0.727181519
0.730375988
0.733558204
0.736728015
0.73988527
0.743029817
0.746161504
0.749280183
0.752385702
0.755477912
0.758556665
0.761621812
0.764673206
0.767710698
0.770734143
0.773743394
0.776738306
0.779718733
0.782684532
0.785635558
0.788571667
0.791492719
0.794398569
0.797289078
0.800164104
0.803023508
0.80586715
0.80869489
0.811506592
0.814302118
0.817081331
0.819844095
0.822590275
0.825319736
0.828032345
0.830727968
0.833406474
0.83606773
0.838711606
0.841337972
0.843946698
0.846537656
0.849110719
0.851665759
0.85420265
0.856721268
0.859221488
0.861703186
0.86416624
0.866610527
0.869035927
0.87144232
0.873829586
0.876197606
0.878546265
0.880875444
0.883185028
0.885474903
0.887744955
0.88999507
0.892225136
0.894435044
0.896624682
0.898793941
0.900942714
0.903070893
0.905178371
0.907265045
0.909330808
0.911375559
0.913399195
0.915401614
0.917382717
0.919342404
0.921280578
0.92319714
0.925091996
0.926965049
0.928816206
0.930645375
0.932452462
0.934237379
0.936000034
0.937740339
0.939458207
0.941153551
0.942826287
0.944476329
0.946103595
0.947708003
0.949289472
0.950847922
0.952383275
0.953895453
0.95538438
0.956849981
0.958292182
0.95971091
0.961106094
0.962477662
0.963825546
0.965149678
0.96644999
0.967726417
0.968978894
0.970207358
0.971411747
0.972591999
0.973748056
0.974879858
0.975987348
0.97707047
0.978129169
0.979163391
0.980173084
0.981158197
0.98211868
0.983054484
0.983965562
0.984851867
0.985713354
0.98654998
0.987361702
0.98814848
0.988910272
0.98964704
0.990358747
0.991045357
0.991706835
0.992343147
0.992954261
0.993540145
0.994100771
0.994636109
0.995146132
0.995630814
0.996090132
0.99652406
0.996932578
0.997315664
0.997673299
0.998005465
0.998312145
0.998593323
0.998848984
0.999079117
0.999283709
0.99946275
0.99961623
0.999744143
0.99984648
0.999923238
0.999974412
1
1
0.999974412
0.999923238
0.99984648
0.999744143
0.99961623
0.99946275
0.999283709
0.999079117
0.998848984
0.998593323
0.998312145
0.998005465
0.997673299
0.997315664
0.996932578
0.99652406
0.996090132
0.995630814
0.995146132
0.994636109
0.994100771
0.993540145
0.992954261
0.992343147
0.991706835
0.991045357
0.990358747
0.98964704
0.988910272
0.98814848
0.987361702
0.98654998
0.985713354
0.984851867
0.983965562
0.983054484
0.98211868
0.981158197
0.980173084
0.979163391
0.978129169
0.97707047
0.975987348
0.974879858
0.973748056
0.972591999
0.971411747
0.970207358
0.968978894
0.967726417
0.96644999
0.965149678
0.963825546
0.962477662
0.961106094
0.95971091
0.958292182
0.956849981
0.95538438
0.953895453
0.952383275
0.950847922
0.949289472
0.947708003
0.946103595
0.944476329
0.942826287
0.941153551
0.939458207
0.937740339
0.936000034
0.934237379
0.932452462
0.930645375
0.928816206
0.926965049
0.925091996
0.92319714
0.921280578
0.919342404
0.917382717
0.915401614
0.913399195
0.911375559
0.909330808
0.907265045
0.905178371
0.903070893
0.900942714
0.898793941
0.896624682
0.894435044
0.892225136
0.88999507
0.887744955
0.885474903
0.883185028
0.880875444
0.878546265
0.876197606
0.873829586
0.87144232
0.869035927
0.866610527
0.86416624
0.861703186
0.859221488
0.856721268
0.85420265
0.851665759
0.849110719
0.846537656
0.843946698
0.841337972
0.838711606
0.83606773
0.833406474
0.830727968
0.828032345
0.825319736
0.822590275
0.819844095
0.817081331
0.814302118
0.811506592
0.80869489
0.80586715
0.803023508
0.800164104
0.797289078
0.794398569
0.791492719
0.788571667
0.785635558
0.782684532
0.779718733
0.776738306
0.773743394
0.770734143
0.767710698
0.764673206
0.761621812
0.758556665
0.755477912
0.752385702
0.749280183
0.746161504
0.743029817
0.73988527
0.736728015
0.733558204
0.730375988
0.727181519
0.72397495
0.720756434
0.717526126
0.714284178
0.711030745
0.707765983
0.704490045
0.701203089
0.697905269
0.694596743
0.691277666
0.687948196
0.68460849
0.681258706
0.677899002
0.674529536
0.671150466
0.667761952
0.664364153
0.660957227
0.657541335
0.654116637
0.650683292
0.647241461
0.643791305
0.640332983
0.636866659
0.633392491
0.629910642
0.626421273
0.622924546
0.619420623
0.615909664
0.612391834
0.608867293
0.605336204
0.601798729
0.59825503
0.594705271
0.591149614
0.58758822
0.584021254
0.580448878
0.576871254
0.573288546
0.569700915
0.566108525
0.562511539
0.558910119
0.555304427
0.551694628
0.548080882
0.544463353
0.540842203
0.537217595
0.533589691
0.529958652
0.526324642
0.522687822
0.519048353
0.515406398
0.511762119
0.508115675
0.50446723
0.500816943
0.497164975
0.493511488
0.489856642
0.486200596
0.482543512
0.478885548
0.475226865
0.471567621
0.467907975
0.464248087
0.460588114
0.456928216
0.453268549
0.449609272
0.445950541
0.442292514
0.438635347
0.434979197
0.431324219
0.427670568
0.424018401
0.420367872
0.416719134
0.413072343
0.409427652
0.405785214
0.402145182
0.398507707
0.394872943
0.39124104
0.387612149
0.383986422
0.380364007
0.376745055
0.373129714
0.369518133
0.365910461
0.362306844
0.358707431
0.355112366
0.351521796
0.347935868
0.344354724
0.340778511
0.33720737
0.333641447
0.330080882
0.326525818
0.322976397
0.319432759
0.315895044
0.312363392
0.308837942
0.305318831
0.301806197
0.298300178
0.29480091
0.291308527
0.287823166
0.28434496
0.280874042
0.277410547
0.273954605
0.270506348
0.267065907
0.263633412
0.260208992
0.256792775
0.25338489
0.249985463
0.246594621
0.243212489
0.239839192
0.236474854
0.233119597
0.229773545
0.226436819
0.223109539
0.219791826
0.216483799
0.213185576
0.209897275
0.206619012
0.203350903
0.200093064
0.196845608
0.193608648
0.190382298
0.187166669
0.183961871
0.180768014
0.177585207
0.174413559
0.171253177
0.168104167
0.164966633
0.161840682
0.158726416
0.155623939
0.152533351
0.149454754
0.146388248
0.143333932
0.140291903
0.13726226
0.134245098
0.131240512
0.128248596
0.125269445
0.122303151
0.119349804
0.116409496
0.113482315
0.110568352
0.107667692
0.104780422
0.101906629
0.0990463965
0.0961998084
0.0933669473
0.090547895
0.0877427319
0.0849515378
0.0821743913
0.0794113701
0.0766625507
0.0739280089
0.0712078191
0.068502055
0.0658107892
0.0631340932
0.0604720375
0.0578246918
0.0551921243
0.0525744027
0.0499715933
0.0473837616
0.0448109718
0.0422532873
0.0397107705
0.0371834825
0.0346714835
0.0321748328
0.0296935885
0.0272278076
0.0247775462
0.0223428594
0.0199238009
0.0175204238
0.0151327799
0.0127609199
0.0104048938
0.00806475008
0.00574053649
0.00343229962
0.00114008501
0.00113606284
0.00339610047
0.0056399855
0.00786767659
0.0100791334
0.0122743168
0.0144531885
0.0166157115
0.0187618496
0.0208915678
0.0230048321
0.0251016096
0.0271818685
0.0292455778
0.0312927079
0.03332323
0.0353371164
0.0373343405
0.0393148767
0.0412787004
0.0432257882
0.0451561175
0.047069667
0.0489664163
0.0508463461
0.052709438
0.0545556747
0.0563850401
0.0581975188
0.0599930969
0.061771761
0.0635334991
0.0652783001
0.0670061538
0.0687170514
0.0704109846
0.0720879465
0.0737479311
0.0753909333
0.0770169493
0.0786259759
0.0802180113
0.0817930545
0.0833511054
0.0848921651
0.0864162356
0.0879233198
0.0894134219
0.0908865467
0.0923427002
0.0937818894
0.095204122
0.0966094071
0.0979977544
0.0993691748
0.10072368
0.102061283
0.103381997
0.104685836
0.105972818
0.107242957
0.108496271
0.10973278
0.110952501
0.112155456
0.113341665
0.114511152
0.115663937
0.116800047
0.117919504
0.119022336
0.120108569
0.12117823
0.122231348
0.123267951
0.124288071
0.125291739
0.126278985
0.127249843
0.128204347
0.129142531
0.130064431
0.130970082
0.131859523
0.132732789
0.133589921
0.134430959
0.135255941
0.13606491
0.136857907
0.137634976
0.13839616
0.139141503
0.13987105
0.140584848
0.141282943
0.141965383
0.142632216
0.143283491
0.143919258
0.144539567
0.14514447
0.14573402
0.146308267
0.146867267
0.147411074
0.147939741
0.148453326
0.148951884
0.149435472
0.149904149
0.150357972
0.150797001
0.151221296
0.151630916
0.152025924
0.15240638
0.152772348
0.15312389
0.15346107
0.153783953
0.154092603
0.154387086
0.154667468
0.154933816
0.155186197
0.155424679
0.155649331
0.155860222
0.156057422
0.156241001
0.156411029
0.156567578
0.156710721
0.156840528
0.156957075
0.157060433
0.157150677
0.157227881
0.157292121
0.157343473
0.157382011
0.157407813
0.157420955
0.157421516
0.157409572
0.157385203
0.157348486
0.157299502
0.15723833
0.157165051
0.157079744
0.15698249
0.156873372
0.15675247
0.156619867
0.156475646
0.156319889
0.156152679
0.155974101
0.155784237
0.155583174
0.155370994
0.155147784
0.154913629
0.154668613
0.154412824
0.154146348
0.15386927
0.153581679
0.15328366
0.152975303
0.152656693
0.15232792
0.151989071
0.151640236
0.151281502
0.150912959
0.150534695
0.150146801
0.149749366
0.149342479
0.148926232
0.148500713
0.148066013
0.147622224
0.147169435
0.146707738
0.146237223
0.145757983
0.145270108
0.144773689
0.144268819
0.14375559
0.143234092
0.142704419
0.142166661
0.141620912
0.141067263
0.140505808
0.139936638
0.139359845
0.138775523
0.138183764
0.137584661
0.136978306
0.136364791
0.135744211
0.135116657
0.134482223
0.133841001
0.133193083
0.132538563
0.131877534
0.131210087
0.130536317
0.129856315
0.129170174
0.128477987
0.127779846
0.127075844
0.126366073
0.125650625
0.124929594
0.12420307
0.123471146
0.122733914
0.121991466
0.121243894
0.120491289
0.119733742
0.118971346
0.118204191
0.117432369
0.11665597
0.115875085
0.115089806
0.114300221
0.113506423
0.1127085
0.111906544
0.111100643
0.110290887
0.109477365
0.108660168
0.107839383
0.107015099
0.106187405
0.105356389
0.10452214
0.103684744
0.102844291
0.102000865
0.101154556
0.10030545
0.0994536321
0.0985991901
0.0977422094
0.0968827758
0.0960209746
0.095156891
0.0942906097
0.0934222152
0.0925517917
0.0916794231
0.0908051929
0.0899291843
0.0890514803
0.0881721634
0.0872913158
0.0864090195
0.0855253558
0.0846404061
0.0837542512
0.0828669715
0.0819786471
0.0810893577
0.0801991827
0.0793082011
0.0784164915
0.077524132
0.0766312004
0.0757377743
0.0748439305
0.0739497457
0.0730552961
0.0721606576
0.0712659053
0.0703711144
0.0694763593
0.0685817141
0.0676872526
0.0667930478
0.0658991727
0.0650056995
0.0641127003
0.0632202463
0.0623284087
0.0614372579
0.060546864
0.0596572968
0.0587686252
0.0578809181
0.0569942436
0.0561086694
0.0552242628
0.0543410905
0.0534592189
0.0525787138
0.0516996405
0.0508220637
0.0499460477
0.0490716565
0.0481989533
0.047328001
0.0464588617
0.0455915974
0.0447262693
0.0438629382
0.0430016643
0.0421425073
0.0412855265
0.0404307805
0.0395783275
0.0387282252
0.0378805305
0.0370353002
0.0361925902
0.035352456
0.0345149526
0.0336801344
0.0328480553
0.0320187685
0.031192327
0.030368783
0.029548188
0.0287305934
0.0279160496
0.0271046068
0.0262963143
0.0254912213
0.0246893759
0.0238908261
0.023095619
0.0223038015
0.0215154196
0.020730519
0.0199491446
0.0191713408
0.0183971517
0.0176266205
0.0168597899
0.0160967021
0.0153373989
0.0145819211
0.0138303094
0.0130826036
0.012338843
0.0115990666
0.0108633124
0.010131618
0.0094040207
0.00868055682
0.00796126232
0.00724617256
0.00653532233
0.00582874583
0.0051264767
0.00442854802
0.00373499227
0.00304584139
0.00236112673
0.00168087908
0.00100512865
0.000333905094
