# Pulseq sequence file
# Created by MATLAB mr toolbox

[VERSION]
major 1
minor 4
revision 0

[DEFINITIONS]
AdcRasterTime 1e-07 
BlockDurationRaster 1e-05 
FOV 0.224 0.224 0.003 
GradientRasterTime 1e-05 
Name gre_lbl 
RadiofrequencyRasterTime 1e-06 
TotalDuration 25.6 

# Format of blocks:
# NUM DUR RF  GX  GY  GZ  ADC  EXT
[BLOCKS]
   1   0   0   0   0   0  0  1
   2 317   1   0   0   1  0  0
   3 100   0   2   3   4  0  0
   4   7   0   0   0   0  0  0
   5 332   0   5   0   0  1  0
   6 9244   0   6   7   8  0  2
   7 317   2   0   0   1  0  0
   8 100   0   2   9   4  0  0
   9   7   0   0   0   0  0  0
  10 332   0   5   0   0  2  0
  11 9244   0   6  10   8  0  2
  12 317   3   0   0   1  0  0
  13 100   0   2  11   4  0  0
  14   7   0   0   0   0  0  0
  15 332   0   5   0   0  3  0
  16 9244   0   6  12   8  0  2
  17 317   4   0   0   1  0  0
  18 100   0   2  13   4  0  0
  19   7   0   0   0   0  0  0
  20 332   0   5   0   0  4  0
  21 9244   0   6  14   8  0  2
  22 317   5   0   0   1  0  0
  23 100   0   2  15   4  0  0
  24   7   0   0   0   0  0  0
  25 332   0   5   0   0  5  0
  26 9244   0   6  16   8  0  2
  27 317   6   0   0   1  0  0
  28 100   0   2  17   4  0  0
  29   7   0   0   0   0  0  0
  30 332   0   5   0   0  6  0
  31 9244   0   6  18   8  0  2
  32 317   7   0   0   1  0  0
  33 100   0   2  19   4  0  0
  34   7   0   0   0   0  0  0
  35 332   0   5   0   0  7  0
  36 9244   0   6  20   8  0  2
  37 317   8   0   0   1  0  0
  38 100   0   2  21   4  0  0
  39   7   0   0   0   0  0  0
  40 332   0   5   0   0  8  0
  41 9244   0   6  22   8  0  2
  42 317   9   0   0   1  0  0
  43 100   0   2  23   4  0  0
  44   7   0   0   0   0  0  0
  45 332   0   5   0   0  9  0
  46 9244   0   6  24   8  0  2
  47 317  10   0   0   1  0  0
  48 100   0   2  25   4  0  0
  49   7   0   0   0   0  0  0
  50 332   0   5   0   0 10  0
  51 9244   0   6  26   8  0  2
  52 317   6   0   0   1  0  0
  53 100   0   2  27   4  0  0
  54   7   0   0   0   0  0  0
  55 332   0   5   0   0  6  0
  56 9244   0   6  28   8  0  2
  57 317  11   0   0   1  0  0
  58 100   0   2  29   4  0  0
  59   7   0   0   0   0  0  0
  60 332   0   5   0   0 11  0
  61 9244   0   6  30   8  0  2
  62 317  12   0   0   1  0  0
  63 100   0   2  31   4  0  0
  64   7   0   0   0   0  0  0
  65 332   0   5   0   0 12  0
  66 9244   0   6  32   8  0  2
  67 317  13   0   0   1  0  0
  68 100   0   2  33   4  0  0
  69   7   0   0   0   0  0  0
  70 332   0   5   0   0 13  0
  71 9244   0   6  34   8  0  2
  72 317  14   0   0   1  0  0
  73 100   0   2  35   4  0  0
  74   7   0   0   0   0  0  0
  75 332   0   5   0   0 14  0
  76 9244   0   6  36   8  0  2
  77 317   1   0   0   1  0  0
  78 100   0   2  37   4  0  0
  79   7   0   0   0   0  0  0
  80 332   0   5   0   0  1  0
  81 9244   0   6  38   8  0  2
  82 317  15   0   0   1  0  0
  83 100   0   2  39   4  0  0
  84   7   0   0   0   0  0  0
  85 332   0   5   0   0 15  0
  86 9244   0   6  40   8  0  2
  87 317  16   0   0   1  0  0
  88 100   0   2  41   4  0  0
  89   7   0   0   0   0  0  0
  90 332   0   5   0   0 16  0
  91 9244   0   6  42   8  0  2
  92 317  13   0   0   1  0  0
  93 100   0   2  43   4  0  0
  94   7   0   0   0   0  0  0
  95 332   0   5   0   0 13  0
  96 9244   0   6  44   8  0  2
  97 317  17   0   0   1  0  0
  98 100   0   2  45   4  0  0
  99   7   0   0   0   0  0  0
 100 332   0   5   0   0 17  0
 101 9244   0   6  46   8  0  2
 102 317   5   0   0   1  0  0
 103 100   0   2  47   4  0  0
 104   7   0   0   0   0  0  0
 105 332   0   5   0   0  5  0
 106 9244   0   6  48   8  0  2
 107 317  18   0   0   1  0  0
 108 100   0   2  49   4  0  0
 109   7   0   0   0   0  0  0
 110 332   0   5   0   0 18  0
 111 9244   0   6  50   8  0  2
 112 317  19   0   0   1  0  0
 113 100   0   2  51   4  0  0
 114   7   0   0   0   0  0  0
 115 332   0   5   0   0 19  0
 116 9244   0   6  52   8  0  2
 117 317   9   0   0   1  0  0
 118 100   0   2  53   4  0  0
 119   7   0   0   0   0  0  0
 120 332   0   5   0   0  9  0
 121 9244   0   6  54   8  0  2
 122 317  20   0   0   1  0  0
 123 100   0   2  55   4  0  0
 124   7   0   0   0   0  0  0
 125 332   0   5   0   0 20  0
 126 9244   0   6  56   8  0  2
 127 317  10   0   0   1  0  0
 128 100   0   2  57   4  0  0
 129   7   0   0   0   0  0  0
 130 332   0   5   0   0 10  0
 131 9244   0   6  58   8  0  2
 132 317  18   0   0   1  0  0
 133 100   0   2  59   4  0  0
 134   7   0   0   0   0  0  0
 135 332   0   5   0   0 18  0
 136 9244   0   6  60   8  0  2
 137 317  21   0   0   1  0  0
 138 100   0   2  61   4  0  0
 139   7   0   0   0   0  0  0
 140 332   0   5   0   0 21  0
 141 9244   0   6  62   8  0  2
 142 317   4   0   0   1  0  0
 143 100   0   2  63   4  0  0
 144   7   0   0   0   0  0  0
 145 332   0   5   0   0  4  0
 146 9244   0   6  64   8  0  2
 147 317  22   0   0   1  0  0
 148 100   0   2  65   4  0  0
 149   7   0   0   0   0  0  0
 150 332   0   5   0   0 22  0
 151 9244   0   6  66   8  0  2
 152 317  14   0   0   1  0  0
 153 100   0   2  67   4  0  0
 154   7   0   0   0   0  0  0
 155 332   0   5   0   0 14  0
 156 9244   0   6  68   8  0  2
 157 317  15   0   0   1  0  0
 158 100   0   2  69   4  0  0
 159   7   0   0   0   0  0  0
 160 332   0   5   0   0 15  0
 161 9244   0   6  70   8  0  2
 162 317  23   0   0   1  0  0
 163 100   0   2  71   4  0  0
 164   7   0   0   0   0  0  0
 165 332   0   5   0   0 23  0
 166 9244   0   6  72   8  0  2
 167 317   2   0   0   1  0  0
 168 100   0   2  73   4  0  0
 169   7   0   0   0   0  0  0
 170 332   0   5   0   0  2  0
 171 9244   0   6  74   8  0  2
 172 317  22   0   0   1  0  0
 173 100   0   2  75   4  0  0
 174   7   0   0   0   0  0  0
 175 332   0   5   0   0 22  0
 176 9244   0   6  76   8  0  2
 177 317  17   0   0   1  0  0
 178 100   0   2  77   4  0  0
 179   7   0   0   0   0  0  0
 180 332   0   5   0   0 17  0
 181 9244   0   6  78   8  0  2
 182 317  11   0   0   1  0  0
 183 100   0   2  79   4  0  0
 184   7   0   0   0   0  0  0
 185 332   0   5   0   0 11  0
 186 9244   0   6  80   8  0  2
 187 317  24   0   0   1  0  0
 188 100   0   2  81   4  0  0
 189   7   0   0   0   0  0  0
 190 332   0   5   0   0 24  0
 191 9244   0   6  82   8  0  2
 192 317   7   0   0   1  0  0
 193 100   0   2  83   4  0  0
 194   7   0   0   0   0  0  0
 195 332   0   5   0   0  7  0
 196 9244   0   6  84   8  0  2
 197 317  20   0   0   1  0  0
 198 100   0   2  85   4  0  0
 199   7   0   0   0   0  0  0
 200 332   0   5   0   0 20  0
 201 9244   0   6  86   8  0  2
 202 317  20   0   0   1  0  0
 203 100   0   2  87   4  0  0
 204   7   0   0   0   0  0  0
 205 332   0   5   0   0 20  0
 206 9244   0   6  88   8  0  2
 207 317   7   0   0   1  0  0
 208 100   0   2  89   4  0  0
 209   7   0   0   0   0  0  0
 210 332   0   5   0   0  7  0
 211 9244   0   6  90   8  0  2
 212 317  24   0   0   1  0  0
 213 100   0   2  91   4  0  0
 214   7   0   0   0   0  0  0
 215 332   0   5   0   0 24  0
 216 9244   0   6  92   8  0  2
 217 317  11   0   0   1  0  0
 218 100   0   2  93   4  0  0
 219   7   0   0   0   0  0  0
 220 332   0   5   0   0 11  0
 221 9244   0   6  94   8  0  2
 222 317  17   0   0   1  0  0
 223 100   0   2  95   4  0  0
 224   7   0   0   0   0  0  0
 225 332   0   5   0   0 17  0
 226 9244   0   6  96   8  0  2
 227 317  22   0   0   1  0  0
 228 100   0   2  97   4  0  0
 229   7   0   0   0   0  0  0
 230 332   0   5   0   0 22  0
 231 9244   0   6  98   8  0  2
 232 317   2   0   0   1  0  0
 233 100   0   2  99   4  0  0
 234   7   0   0   0   0  0  0
 235 332   0   5   0   0  2  0
 236 9244   0   6 100   8  0  2
 237 317  23   0   0   1  0  0
 238 100   0   2 101   4  0  0
 239   7   0   0   0   0  0  0
 240 332   0   5   0   0 23  0
 241 9244   0   6 102   8  0  2
 242 317  15   0   0   1  0  0
 243 100   0   2 103   4  0  0
 244   7   0   0   0   0  0  0
 245 332   0   5   0   0 15  0
 246 9244   0   6 104   8  0  2
 247 317  14   0   0   1  0  0
 248 100   0   2 105   4  0  0
 249   7   0   0   0   0  0  0
 250 332   0   5   0   0 14  0
 251 9244   0   6 106   8  0  2
 252 317  22   0   0   1  0  0
 253 100   0   2 107   4  0  0
 254   7   0   0   0   0  0  0
 255 332   0   5   0   0 22  0
 256 9244   0   6 108   8  0  2
 257 317   4   0   0   1  0  0
 258 100   0   2 109   4  0  0
 259   7   0   0   0   0  0  0
 260 332   0   5   0   0  4  0
 261 9244   0   6 110   8  0  2
 262 317  21   0   0   1  0  0
 263 100   0   2 111   4  0  0
 264   7   0   0   0   0  0  0
 265 332   0   5   0   0 21  0
 266 9244   0   6 112   8  0  2
 267 317  18   0   0   1  0  0
 268 100   0   2 113   4  0  0
 269   7   0   0   0   0  0  0
 270 332   0   5   0   0 18  0
 271 9244   0   6 114   8  0  2
 272 317  10   0   0   1  0  0
 273 100   0   2 115   4  0  0
 274   7   0   0   0   0  0  0
 275 332   0   5   0   0 10  0
 276 9244   0   6 116   8  0  2
 277 317  20   0   0   1  0  0
 278 100   0   2 117   4  0  0
 279   7   0   0   0   0  0  0
 280 332   0   5   0   0 20  0
 281 9244   0   6 118   8  0  2
 282 317   9   0   0   1  0  0
 283 100   0   2 119   4  0  0
 284   7   0   0   0   0  0  0
 285 332   0   5   0   0  9  0
 286 9244   0   6 120   8  0  2
 287 317  19   0   0   1  0  0
 288 100   0   2 121   4  0  0
 289   7   0   0   0   0  0  0
 290 332   0   5   0   0 19  0
 291 9244   0   6 122   8  0  2
 292 317  18   0   0   1  0  0
 293 100   0   2 123   4  0  0
 294   7   0   0   0   0  0  0
 295 332   0   5   0   0 18  0
 296 9244   0   6 124   8  0  2
 297 317   5   0   0   1  0  0
 298 100   0   2 125   4  0  0
 299   7   0   0   0   0  0  0
 300 332   0   5   0   0  5  0
 301 9244   0   6 126   8  0  2
 302 317  17   0   0   1  0  0
 303 100   0   2 127   4  0  0
 304   7   0   0   0   0  0  0
 305 332   0   5   0   0 17  0
 306 9244   0   6 128   8  0  2
 307 317  13   0   0   1  0  0
 308 100   0   2 129   4  0  0
 309   7   0   0   0   0  0  0
[RF]
1      36.5724 1 2 0 100 0 0
2      36.5724 1 2 0 100 0 2.04204
3      36.5724 1 2 0 100 0 6.12611
4      36.5724 1 2 0 100 0 5.96903
5      36.5724 1 2 0 100 0 1.5708
6      36.5724 1 2 0 100 0 5.49779
7      36.5724 1 2 0 100 0 5.18363
8      36.5724 1 2 0 100 0 0.628319
9      36.5724 1 2 0 100 0 4.39823
10      36.5724 1 2 0 100 0 3.92699
11      36.5724 1 2 0 100 0 2.82743
12      36.5724 1 2 0 100 0 2.19911
13      36.5724 1 2 0 100 0 3.61283
14      36.5724 1 2 0 100 0 0.785398
15      36.5724 1 2 0 100 0 1.25664
16      36.5724 1 2 0 100 0 4.55531
17      36.5724 1 2 0 100 0 4.71239
18      36.5724 1 2 0 100 0 0.471239
19      36.5724 1 2 0 100 0 1.41372
20      36.5724 1 2 0 100 0 3.14159
21      36.5724 1 2 0 100 0 5.34071
22      36.5724 1 2 0 100 0 2.35619
23      36.5724 1 2 0 100 0 3.76991
24      36.5724 1 2 0 100 0 2.98451

# Format of trapezoid gradients:
# id amplitude rise flat fall delay
# ..      Hz/m   us   us   us    us
[TRAP]
 1       444444  70 3000  70  30
 2      -654093 110  780 110   0
 3       634921 100  800 100   0
 4      -784163 130  740 130   0
 5       357143  60 3200  60   0
 6  1.19048e+06 190 1730 190   0
 7      -634921 100  800 100   0
 8  1.19048e+06 190  930 190   0
 9       629960 100  800 100   0
10      -629960 100  800 100   0
11       625000 100  800 100   0
12      -625000 100  800 100   0
13       620040 100  800 100   0
14      -620040 100  800 100   0
15       615079 100  800 100   0
16      -615079 100  800 100   0
17       610119 100  800 100   0
18      -610119 100  800 100   0
19       605159 100  800 100   0
20      -605159 100  800 100   0
21       600198 100  800 100   0
22      -600198 100  800 100   0
23       595238 100  800 100   0
24      -595238 100  800 100   0
25       590278 100  800 100   0
26      -590278 100  800 100   0
27       585317 100  800 100   0
28      -585317 100  800 100   0
29       573980  90  820  90   0
30      -573980  90  820  90   0
31       569074  90  820  90   0
32      -569074  90  820  90   0
33       564168  90  820  90   0
34      -564168  90  820  90   0
35       559262  90  820  90   0
36      -559262  90  820  90   0
37       554356  90  820  90   0
38      -554356  90  820  90   0
39       549451  90  820  90   0
40      -549451  90  820  90   0
41       544545  90  820  90   0
42      -544545  90  820  90   0
43       539639  90  820  90   0
44      -539639  90  820  90   0
45       534733  90  820  90   0
46      -534733  90  820  90   0
47       529827  90  820  90   0
48      -529827  90  820  90   0
49       524922  90  820  90   0
50      -524922  90  820  90   0
51       520016  90  820  90   0
52      -520016  90  820  90   0
53       509511  80  840  80   0
54      -509511  80  840  80   0
55       504658  80  840  80   0
56      -504658  80  840  80   0
57       499806  80  840  80   0
58      -499806  80  840  80   0
59       494953  80  840  80   0
60      -494953  80  840  80   0
61       490101  80  840  80   0
62      -490101  80  840  80   0
63       485248  80  840  80   0
64      -485248  80  840  80   0
65       480396  80  840  80   0
66      -480396  80  840  80   0
67       475543  80  840  80   0
68      -475543  80  840  80   0
69       470691  80  840  80   0
70      -470691  80  840  80   0
71       465839  80  840  80   0
72      -465839  80  840  80   0
73       460986  80  840  80   0
74      -460986  80  840  80   0
75       456134  80  840  80   0
76      -456134  80  840  80   0
77       446429  70  860  70   0
78      -446429  70  860  70   0
79       441628  70  860  70   0
80      -441628  70  860  70   0
81       436828  70  860  70   0
82      -436828  70  860  70   0
83       432028  70  860  70   0
84      -432028  70  860  70   0
85       427227  70  860  70   0
86      -427227  70  860  70   0
87       422427  70  860  70   0
88      -422427  70  860  70   0
89       417627  70  860  70   0
90      -417627  70  860  70   0
91       412826  70  860  70   0
92      -412826  70  860  70   0
93       408026  70  860  70   0
94      -408026  70  860  70   0
95       403226  70  860  70   0
96      -403226  70  860  70   0
97       398425  70  860  70   0
98      -398425  70  860  70   0
99       393625  70  860  70   0
100      -393625  70  860  70   0
101       388825  70  860  70   0
102      -388825  70  860  70   0
103       379939  60  880  60   0
104      -379939  60  880  60   0
105       375190  60  880  60   0
106      -375190  60  880  60   0
107       370441  60  880  60   0
108      -370441  60  880  60   0
109       365691  60  880  60   0
110      -365691  60  880  60   0
111       360942  60  880  60   0
112      -360942  60  880  60   0
113       356193  60  880  60   0
114      -356193  60  880  60   0
115       351444  60  880  60   0
116      -351444  60  880  60   0
117       346695  60  880  60   0
118      -346695  60  880  60   0
119       341945  60  880  60   0
120      -341945  60  880  60   0
121       337196  60  880  60   0
122      -337196  60  880  60   0
123       332447  60  880  60   0
124      -332447  60  880  60   0
125       327698  60  880  60   0
126      -327698  60  880  60   0
127       322948  60  880  60   0
128      -322948  60  880  60   0
129       314850  50  900  50   0
130      -314850  50  900  50   0
131       310150  50  900  50   0
132      -310150  50  900  50   0
133       305451  50  900  50   0
134      -305451  50  900  50   0
135       300752  50  900  50   0
136      -300752  50  900  50   0
137       296053  50  900  50   0
138      -296053  50  900  50   0
139       291353  50  900  50   0
140      -291353  50  900  50   0
141       286654  50  900  50   0
142      -286654  50  900  50   0
143       281955  50  900  50   0
144      -281955  50  900  50   0
145       277256  50  900  50   0
146      -277256  50  900  50   0
147       272556  50  900  50   0
148      -272556  50  900  50   0
149       267857  50  900  50   0
150      -267857  50  900  50   0
151       263158  50  900  50   0
152      -263158  50  900  50   0
153       258459  50  900  50   0
154      -258459  50  900  50   0
155       251116  40  920  40   0
156      -251116  40  920  40   0
157       246466  40  920  40   0
158      -246466  40  920  40   0
159       241815  40  920  40   0
160      -241815  40  920  40   0
161       237165  40  920  40   0
162      -237165  40  920  40   0
163       232515  40  920  40   0
164      -232515  40  920  40   0
165       227865  40  920  40   0
166      -227865  40  920  40   0
167       223214  40  920  40   0
168      -223214  40  920  40   0
169       218564  40  920  40   0
170      -218564  40  920  40   0
171       213914  40  920  40   0
172      -213914  40  920  40   0
173       209263  40  920  40   0
174      -209263  40  920  40   0
175       204613  40  920  40   0
176      -204613  40  920  40   0
177       199963  40  920  40   0
178      -199963  40  920  40   0
179       195312  40  920  40   0
180      -195312  40  920  40   0
181       188697  30  940  30   0
182      -188697  30  940  30   0
183       184094  30  940  30   0
184      -184094  30  940  30   0
185       179492  30  940  30   0
186      -179492  30  940  30   0
187       174890  30  940  30   0
188      -174890  30  940  30   0
189       170287  30  940  30   0
190      -170287  30  940  30   0
191       165685  30  940  30   0
192      -165685  30  940  30   0
193       161082  30  940  30   0
194      -161082  30  940  30   0
195       156480  30  940  30   0
196      -156480  30  940  30   0
197       151878  30  940  30   0
198      -151878  30  940  30   0
199       147275  30  940  30   0
200      -147275  30  940  30   0
201       142673  30  940  30   0
202      -142673  30  940  30   0
203       138071  30  940  30   0
204      -138071  30  940  30   0
205       133468  30  940  30   0
206      -133468  30  940  30   0
207       127551  20  960  20   0
208      -127551  20  960  20   0
209       122996  20  960  20   0
210      -122996  20  960  20   0
211       118440  20  960  20   0
212      -118440  20  960  20   0
213       113885  20  960  20   0
214      -113885  20  960  20   0
215       109329  20  960  20   0
216      -109329  20  960  20   0
217       104774  20  960  20   0
218      -104774  20  960  20   0
219       100219  20  960  20   0
220      -100219  20  960  20   0
221      95663.3  20  960  20   0
222     -95663.3  20  960  20   0
223      91107.9  20  960  20   0
224     -91107.9  20  960  20   0
225      86552.5  20  960  20   0
226     -86552.5  20  960  20   0
227      81997.1  20  960  20   0
228     -81997.1  20  960  20   0
229      77441.7  20  960  20   0
230     -77441.7  20  960  20   0
231      72886.3  20  960  20   0
232     -72886.3  20  960  20   0
233      68330.9  20  960  20   0
234     -68330.9  20  960  20   0
235      63131.3  10  980  10   0
236     -63131.3  10  980  10   0
237      58621.9  10  980  10   0
238     -58621.9  10  980  10   0
239      54112.6  10  980  10   0
240     -54112.6  10  980  10   0
241      49603.2  10  980  10   0
242     -49603.2  10  980  10   0
243      45093.8  10  980  10   0
244     -45093.8  10  980  10   0
245      40584.4  10  980  10   0
246     -40584.4  10  980  10   0
247        36075  10  980  10   0
248       -36075  10  980  10   0
249      31565.7  10  980  10   0
250     -31565.7  10  980  10   0
251      27056.3  10  980  10   0
252     -27056.3  10  980  10   0
253      22546.9  10  980  10   0
254     -22546.9  10  980  10   0
255      18037.5  10  980  10   0
256     -18037.5  10  980  10   0
257      13528.1  10  980  10   0
258     -13528.1  10  980  10   0
259      9018.76  10  980  10   0
260     -9018.76  10  980  10   0
261      4509.38  10  980  10   0
262     -4509.38  10  980  10   0
263           -0  10  980  10   0
264            0  10  980  10   0

# Format of ADC events:
# id num dwell delay freq phase
# ..  ..    ns    us   Hz   rad
[ADC]
1 256 12500 60 0 0
2 256 12500 60 0 2.04204
3 256 12500 60 0 6.12611
4 256 12500 60 0 5.96903
5 256 12500 60 0 1.5708
6 256 12500 60 0 5.49779
7 256 12500 60 0 5.18363
8 256 12500 60 0 0.628319
9 256 12500 60 0 4.39823
10 256 12500 60 0 3.92699
11 256 12500 60 0 2.82743
12 256 12500 60 0 2.19911
13 256 12500 60 0 3.61283
14 256 12500 60 0 0.785398
15 256 12500 60 0 1.25664
16 256 12500 60 0 4.55531
17 256 12500 60 0 4.71239
18 256 12500 60 0 0.471239
19 256 12500 60 0 1.41372
20 256 12500 60 0 3.14159
21 256 12500 60 0 5.34071
22 256 12500 60 0 2.35619
23 256 12500 60 0 3.76991
24 256 12500 60 0 2.98451

# Format of extension lists:
# id type ref next_id
# next_id of 0 terminates the list
# Extension list is followed by extension specifications
[EXTENSIONS]
1 1 1 0
2 2 1 0
3 1 2 0
4 2 2 3

# Extension specification for setting labels:
# id set labelstring
extension LABELSET 1
1 1 REV
2 0 LIN

# Extension specification for setting labels:
# id set labelstring
extension LABELINC 2
1 1 LIN
2 1 SLC

# Sequence Shapes
[SHAPES]

shape_id 1
num_samples 3000
9.14157145e-11
2.46985517e-09
1.14419998e-08
3.14172076e-08
6.68159063e-08
1.22069341e-07
2.01619321e-07
3.09917965e-07
4.51427445e-07
6.30619731e-07
8.51976334e-07
1.11998804e-06
1.43915468e-06
1.81398481e-06
2.24899552e-06
2.74871213e-06
3.31766794e-06
3.96040395e-06
4.68146863e-06
5.48541761e-06
6.37681346e-06
7.36022539e-06
8.44022899e-06
9.62140598e-06
1.09083439e-05
1.23056359e-05
1.38178804e-05
1.54496809e-05
1.72056456e-05
1.90903871e-05
2.11085226e-05
2.32646727e-05
2.5563462e-05
2.80095185e-05
3.06074732e-05
3.33619599e-05
3.6277615e-05
3.93590773e-05
4.26109873e-05
4.60379876e-05
4.96447219e-05
5.34358353e-05
5.74159736e-05
6.15897832e-05
6.59619109e-05
7.05370036e-05
7.53197076e-05
8.0314669e-05
8.5526533e-05
9.09599435e-05
9.66195432e-05
0.000102509973
0.000108635872
0.000115001876
0.000121612621
0.000128472737
0.000135586852
0.000142959591
0.000150595575
0.000158499421
0.000166675742
0.000175129145
0.000183864235
0.00019288561
0.000202197861
0.000211805575
0.000221713335
0.000231925713
0.000242447278
0.000253282591
0.000264436206
0.000275912667
0.000287716515
0.000299852279
0.000312324481
0.000325137633
0.000338296241
0.000351804799
0.000365667792
0.000379889695
0.000394474974
0.000409428083
0.000424753467
0.000440455557
0.000456538775
0.000473007532
0.000489866224
0.000507119238
0.000524770946
0.000542825708
0.000561287871
0.000580161769
0.000599451722
0.000619162034
0.000639296997
0.000659860888
0.000680857968
0.000702292483
0.000724168666
0.000746490729
0.000769262873
0.000792489279
0.000816174114
0.000840321525
0.000864935645
0.000890020586
0.000915580444
0.000941619297
0.000968141203
0.000995150203
0.00102265032
0.00105064555
0.00107913988
0.00110813726
0.00113764165
0.00116765696
0.00119818709
0.00122923593
0.00126080731
0.0012929051
0.00132553309
0.00135869507
0.00139239482
0.00142663608
0.00146142258
0.001496758
0.00153264603
0.00156909032
0.00160609449
0.00164366214
0.00168179686
0.00172050218
0.00175978164
0.00179963874
0.00184007694
0.0018810997
0.00192271043
0.00196491254
0.00200770937
0.00205110429
0.00209510058
0.00213970154
0.00218491041
0.00223073043
0.00227716478
0.00232421664
0.00237188914
0.00242018539
0.00246910847
0.00251866141
0.00256884724
0.00261966894
0.00267112947
0.00272323174
0.00277597864
0.00282937304
0.00288341775
0.00293811558
0.00299346927
0.00304948156
0.00310615513
0.00316349266
0.00322149675
0.00328017001
0.00333951498
0.00339953419
0.00346023013
0.00352160525
0.00358366195
0.00364640262
0.00370982961
0.00377394521
0.0038387517
0.00390425132
0.00397044624
0.00403733864
0.00410493063
0.0041732243
0.00424222169
0.0043119248
0.0043823356
0.00445345601
0.00452528793
0.00459783321
0.00467109365
0.00474507101
0.00481976704
0.00489518341
0.00497132178
0.00504818374
0.00512577087
0.00520408468
0.00528312666
0.00536289824
0.00544340083
0.00552463578
0.00560660439
0.00568930794
0.00577274766
0.00585692471
0.00594184025
0.00602749537
0.00611389112
0.00620102849
0.00628890846
0.00637753194
0.0064668998
0.00655701287
0.00664787193
0.00673947771
0.0068318309
0.00692493214
0.00701878203
0.00711338112
0.00720872992
0.00730482887
0.00740167838
0.00749927883
0.00759763052
0.00769673371
0.00779658862
0.00789719543
0.00799855425
0.00810066516
0.00820352817
0.00830714327
0.00841151037
0.00851662936
0.00862250005
0.00872912223
0.00883649561
0.00894461988
0.00905349466
0.00916311953
0.009273494
0.00938461754
0.00949648959
0.00960910951
0.00972247662
0.00983659019
0.00995144942
0.0100670535
0.0101834015
0.0103004925
0.0104183255
0.0105368995
0.0106562134
0.0107762659
0.0108970559
0.0110185822
0.0111408434
0.0112638382
0.0113875651
0.0115120227
0.0116372094
0.0117631237
0.0118897639
0.0120171282
0.0121452151
0.0122740227
0.012403549
0.0125337923
0.0126647504
0.0127964215
0.0129288035
0.0130618941
0.0131956912
0.0133301926
0.013465396
0.0136012989
0.013737899
0.0138751939
0.0140131809
0.0141518575
0.0142912211
0.0144312689
0.0145719983
0.0147134063
0.0148554902
0.0149982469
0.0151416736
0.0152857671
0.0154305243
0.0155759422
0.0157220175
0.0158687469
0.0160161271
0.0161641547
0.0163128262
0.0164621382
0.016612087
0.0167626691
0.0169138808
0.0170657182
0.0172181778
0.0173712555
0.0175249474
0.0176792496
0.0178341581
0.0179896688
0.0181457774
0.0183024798
0.0184597717
0.0186176488
0.0187761068
0.018935141
0.0190947471
0.0192549205
0.0194156565
0.0195769504
0.0197387976
0.0199011931
0.0200641322
0.0202276099
0.0203916212
0.0205561611
0.0207212245
0.0208868062
0.0210529009
0.0212195035
0.0213866084
0.0215542105
0.0217223041
0.0218908838
0.0220599439
0.0222294789
0.022399483
0.0225699504
0.0227408754
0.022912252
0.0230840744
0.0232563364
0.023429032
0.0236021552
0.0237756997
0.0239496593
0.0241240276
0.0242987984
0.0244739651
0.0246495214
0.0248254606
0.0250017762
0.0251784614
0.0253555097
0.0255329141
0.0257106678
0.025888764
0.0260671957
0.0262459559
0.0264250374
0.0266044332
0.026784136
0.0269641386
0.0271444336
0.0273250137
0.0275058715
0.0276869995
0.02786839
0.0280500355
0.0282319284
0.0284140608
0.028596425
0.0287790131
0.0289618173
0.0291448296
0.0293280419
0.0295114461
0.0296950342
0.0298787979
0.030062729
0.0302468191
0.0304310599
0.0306154429
0.0307999597
0.0309846017
0.0311693603
0.0313542268
0.0315391926
0.0317242489
0.0319093867
0.0320945973
0.0322798717
0.0324652008
0.0326505757
0.0328359871
0.033021426
0.0332068831
0.0333923492
0.0335778148
0.0337632706
0.0339487071
0.0341341149
0.0343194843
0.0345048057
0.0346900696
0.034875266
0.0350603854
0.0352454177
0.0354303533
0.035615182
0.0357998938
0.0359844789
0.0361689269
0.0363532278
0.0365373714
0.0367213474
0.0369051454
0.0370887552
0.0372721662
0.037455368
0.0376383501
0.0378211018
0.0380036126
0.0381858718
0.0383678685
0.0385495921
0.0387310317
0.0389121764
0.0390930153
0.0392735373
0.0394537315
0.0396335866
0.0398130917
0.0399922355
0.0401710067
0.0403493941
0.0405273863
0.040704972
0.0408821396
0.0410588778
0.0412351749
0.0414110195
0.0415863998
0.0417613042
0.041935721
0.0421096384
0.0422830446
0.0424559277
0.0426282758
0.042800077
0.0429713192
0.0431419904
0.0433120786
0.0434815715
0.0436504571
0.043818723
0.043986357
0.0441533468
0.0443196801
0.0444853444
0.0446503273
0.0448146163
0.0449781989
0.0451410625
0.0453031945
0.0454645823
0.0456252131
0.0457850743
0.045944153
0.0461024364
0.0462599117
0.0464165659
0.0465723862
0.0467273596
0.046881473
0.0470347135
0.0471870678
0.0473385229
0.0474890656
0.0476386828
0.0477873611
0.0479350873
0.0480818481
0.0482276301
0.0483724199
0.0485162042
0.0486589695
0.0488007022
0.0489413889
0.049081016
0.0492195698
0.0493570369
0.0494934035
0.0496286559
0.0497627804
0.0498957632
0.0500275906
0.0501582488
0.0502877238
0.0504160018
0.050543069
0.0506689113
0.0507935148
0.0509168654
0.0510389492
0.0511597522
0.0512792601
0.051397459
0.0515143346
0.0516298728
0.0517440594
0.0518568802
0.0519683209
0.0520783673
0.052187005
0.0522942199
0.0523999974
0.0525043232
0.052607183
0.0527085623
0.0528084467
0.0529068218
0.0530036729
0.0530989857
0.0531927456
0.0532849381
0.0533755486
0.0534645625
0.0535519652
0.0536377421
0.0537218785
0.0538043597
0.0538851712
0.0539642981
0.0540417258
0.0541174396
0.0541914246
0.0542636662
0.0543341495
0.0544028598
0.0544697821
0.0545349019
0.054598204
0.0546596738
0.0547192964
0.0547770568
0.0548329402
0.0548869318
0.0549390164
0.0549891794
0.0550374056
0.0550836803
0.0551279883
0.0551703148
0.0552106448
0.0552489633
0.0552852554
0.0553195059
0.0553517
0.0553818226
0.0554098587
0.0554357933
0.0554596113
0.0554812978
0.0555008376
0.0555182158
0.0555334174
0.0555464272
0.0555572302
0.0555658114
0.0555721558
0.0555762482
0.0555780737
0.0555776171
0.0555748635
0.0555697977
0.0555624048
0.0555526697
0.0555405773
0.0555261126
0.0555092605
0.0554900061
0.0554683342
0.05544423
0.0554176782
0.055388664
0.0553571723
0.0553231882
0.0552866965
0.0552476823
0.0552061307
0.0551620267
0.0551153553
0.0550661015
0.0550142504
0.0549597871
0.0549026966
0.0548429641
0.0547805746
0.0547155132
0.0546477651
0.0545773154
0.0545041492
0.0544282517
0.0543496081
0.0542682036
0.0541840233
0.0540970526
0.0540072766
0.0539146807
0.05381925
0.0537209699
0.0536198256
0.0535158026
0.0534088862
0.0532990617
0.0531863145
0.05307063
0.0529519938
0.0528303911
0.0527058076
0.0525782286
0.0524476398
0.0523140266
0.0521773747
0.0520376696
0.051894897
0.0517490425
0.0516000917
0.0514480304
0.0512928443
0.0511345192
0.0509730408
0.050808395
0.0506405675
0.0504695443
0.0502953113
0.0501178543
0.0499371594
0.0497532126
0.0495659998
0.0493755072
0.0491817207
0.0489846267
0.0487842111
0.0485804603
0.0483733603
0.0481628976
0.0479490584
0.047731829
0.0475111958
0.0472871453
0.0470596638
0.0468287379
0.0465943541
0.0463564989
0.0461151591
0.0458703211
0.0456219717
0.0453700977
0.0451146858
0.0448557228
0.0445931957
0.0443270912
0.0440573963
0.0437840981
0.0435071835
0.0432266396
0.0429424537
0.0426546128
0.0423631041
0.042067915
0.0417690327
0.0414664446
0.0411601381
0.0408501008
0.04053632
0.0402187834
0.0398974785
