# Pulseq sequence file
# Created by MATLAB mr toolbox

[VERSION]
major 1
minor 4
revision 0

[DEFINITIONS]
AdcRasterTime 1e-07 
BlockDurationRaster 1e-05 
FOV 0.256 0.256 0.005 
GradientRasterTime 1e-05 
Name DEMO_gre1 
RadiofrequencyRasterTime 1e-06 
TotalDuration 5.632 

# Format of blocks:
# NUM DUR RF  GX  GY  GZ  ADC  EXT
[BLOCKS]
   1 415   1   0   0   1  0  0
   2 200   0   2   3   4  0  0
   3  69   0   0   0   0  0  0
   4 646   0   5   0   0  1  0
   5 799   0   6   6   6  0  0
   6  71   0   0   0   0  0  0
   7 415   1   0   0   1  0  0
   8 200   0   2   7   4  0  0
   9  69   0   0   0   0  0  0
  10 646   0   5   0   0  1  0
  11 799   0   6   6   6  0  0
  12  71   0   0   0   0  0  0
  13 415   1   0   0   1  0  0
  14 200   0   2   8   4  0  0
  15  69   0   0   0   0  0  0
  16 646   0   5   0   0  1  0
  17 799   0   6   6   6  0  0
  18  71   0   0   0   0  0  0
  19 415   1   0   0   1  0  0
  20 200   0   2   9   4  0  0
  21  69   0   0   0   0  0  0
  22 646   0   5   0   0  1  0
  23 799   0   6   6   6  0  0
  24  71   0   0   0   0  0  0
  25 415   1   0   0   1  0  0
  26 200   0   2  10   4  0  0
  27  69   0   0   0   0  0  0
  28 646   0   5   0   0  1  0
  29 799   0   6   6   6  0  0
  30  71   0   0   0   0  0  0
  31 415   1   0   0   1  0  0
  32 200   0   2  11   4  0  0
  33  69   0   0   0   0  0  0
  34 646   0   5   0   0  1  0
  35 799   0   6   6   6  0  0
  36  71   0   0   0   0  0  0
  37 415   1   0   0   1  0  0
  38 200   0   2  12   4  0  0
  39  69   0   0   0   0  0  0
  40 646   0   5   0   0  1  0
  41 799   0   6   6   6  0  0
  42  71   0   0   0   0  0  0
  43 415   1   0   0   1  0  0
  44 200   0   2  13   4  0  0
  45  69   0   0   0   0  0  0
  46 646   0   5   0   0  1  0
  47 799   0   6   6   6  0  0
  48  71   0   0   0   0  0  0
  49 415   1   0   0   1  0  0
  50 200   0   2  14   4  0  0
  51  69   0   0   0   0  0  0
  52 646   0   5   0   0  1  0
  53 799   0   6   6   6  0  0
  54  71   0   0   0   0  0  0
  55 415   1   0   0   1  0  0
  56 200   0   2  15   4  0  0
  57  69   0   0   0   0  0  0
  58 646   0   5   0   0  1  0
  59 799   0   6   6   6  0  0
  60  71   0   0   0   0  0  0
  61 415   1   0   0   1  0  0
  62 200   0   2  16   4  0  0
  63  69   0   0   0   0  0  0
  64 646   0   5   0   0  1  0
  65 799   0   6   6   6  0  0
  66  71   0   0   0   0  0  0
  67 415   1   0   0   1  0  0
  68 200   0   2  17   4  0  0
  69  69   0   0   0   0  0  0
  70 646   0   5   0   0  1  0
  71 799   0   6   6   6  0  0
  72  71   0   0   0   0  0  0
  73 415   1   0   0   1  0  0
  74 200   0   2  18   4  0  0
  75  69   0   0   0   0  0  0
  76 646   0   5   0   0  1  0
  77 799   0   6   6   6  0  0
  78  71   0   0   0   0  0  0
  79 415   1   0   0   1  0  0
  80 200   0   2  19   4  0  0
  81  69   0   0   0   0  0  0
  82 646   0   5   0   0  1  0
  83 799   0   6   6   6  0  0
  84  71   0   0   0   0  0  0
  85 415   1   0   0   1  0  0
  86 200   0   2  20   4  0  0
  87  69   0   0   0   0  0  0
  88 646   0   5   0   0  1  0
  89 799   0   6   6   6  0  0
  90  71   0   0   0   0  0  0
  91 415   1   0   0   1  0  0
  92 200   0   2  21   4  0  0
  93  69   0   0   0   0  0  0
  94 646   0   5   0   0  1  0
  95 799   0   6   6   6  0  0
  96  71   0   0   0   0  0  0
  97 415   1   0   0   1  0  0
  98 200   0   2  22   4  0  0
  99  69   0   0   0   0  0  0
 100 646   0   5   0   0  1  0
 101 799   0   6   6   6  0  0
 102  71   0   0   0   0  0  0
 103 415   1   0   0   1  0  0
 104 200   0   2  23   4  0  0
 105  69   0   0   0   0  0  0
 106 646   0   5   0   0  1  0
 107 799   0   6   6   6  0  0
 108  71   0   0   0   0  0  0
 109 415   1   0   0   1  0  0
 110 200   0   2  24   4  0  0
 111  69   0   0   0   0  0  0
 112 646   0   5   0   0  1  0
 113 799   0   6   6   6  0  0
 114  71   0   0   0   0  0  0
 115 415   1   0   0   1  0  0
 116 200   0   2  25   4  0  0
 117  69   0   0   0   0  0  0
 118 646   0   5   0   0  1  0
 119 799   0   6   6   6  0  0
 120  71   0   0   0   0  0  0
 121 415   1   0   0   1  0  0
 122 200   0   2  26   4  0  0
 123  69   0   0   0   0  0  0
 124 646   0   5   0   0  1  0
 125 799   0   6   6   6  0  0
 126  71   0   0   0   0  0  0
 127 415   1   0   0   1  0  0
 128 200   0   2  27   4  0  0
 129  69   0   0   0   0  0  0
 130 646   0   5   0   0  1  0
 131 799   0   6   6   6  0  0
 132  71   0   0   0   0  0  0
 133 415   1   0   0   1  0  0
 134 200   0   2  28   4  0  0
 135  69   0   0   0   0  0  0
 136 646   0   5   0   0  1  0
 137 799   0   6   6   6  0  0
 138  71   0   0   0   0  0  0
 139 415   1   0   0   1  0  0
 140 200   0   2  29   4  0  0
 141  69   0   0   0   0  0  0
 142 646   0   5   0   0  1  0
 143 799   0   6   6   6  0  0
 144  71   0   0   0   0  0  0
 145 415   1   0   0   1  0  0
 146 200   0   2  30   4  0  0
 147  69   0   0   0   0  0  0
 148 646   0   5   0   0  1  0
 149 799   0   6   6   6  0  0
 150  71   0   0   0   0  0  0
 151 415   1   0   0   1  0  0
 152 200   0   2  31   4  0  0
 153  69   0   0   0   0  0  0
 154 646   0   5   0   0  1  0
 155 799   0   6   6   6  0  0
 156  71   0   0   0   0  0  0
 157 415   1   0   0   1  0  0
 158 200   0   2  32   4  0  0
 159  69   0   0   0   0  0  0
 160 646   0   5   0   0  1  0
 161 799   0   6   6   6  0  0
 162  71   0   0   0   0  0  0
 163 415   1   0   0   1  0  0
 164 200   0   2  33   4  0  0
 165  69   0   0   0   0  0  0
 166 646   0   5   0   0  1  0
 167 799   0   6   6   6  0  0
 168  71   0   0   0   0  0  0
 169 415   1   0   0   1  0  0
 170 200   0   2  34   4  0  0
 171  69   0   0   0   0  0  0
 172 646   0   5   0   0  1  0
 173 799   0   6   6   6  0  0
 174  71   0   0   0   0  0  0
 175 415   1   0   0   1  0  0
 176 200   0   2  35   4  0  0
 177  69   0   0   0   0  0  0
 178 646   0   5   0   0  1  0
 179 799   0   6   6   6  0  0
 180  71   0   0   0   0  0  0
 181 415   1   0   0   1  0  0
 182 200   0   2  36   4  0  0
 183  69   0   0   0   0  0  0
 184 646   0   5   0   0  1  0
 185 799   0   6   6   6  0  0
 186  71   0   0   0   0  0  0
 187 415   1   0   0   1  0  0
 188 200   0   2  37   4  0  0
 189  69   0   0   0   0  0  0
 190 646   0   5   0   0  1  0
 191 799   0   6   6   6  0  0
 192  71   0   0   0   0  0  0
 193 415   1   0   0   1  0  0
 194 200   0   2  38   4  0  0
 195  69   0   0   0   0  0  0
 196 646   0   5   0   0  1  0
 197 799   0   6   6   6  0  0
 198  71   0   0   0   0  0  0
 199 415   1   0   0   1  0  0
 200 200   0   2  39   4  0  0
 201  69   0   0   0   0  0  0
 202 646   0   5   0   0  1  0
 203 799   0   6   6   6  0  0
 204  71   0   0   0   0  0  0
 205 415   1   0   0   1  0  0
 206 200   0   2  40   4  0  0
 207  69   0   0   0   0  0  0
 208 646   0   5   0   0  1  0
 209 799   0   6   6   6  0  0
 210  71   0   0   0   0  0  0
 211 415   1   0   0   1  0  0
 212 200   0   2  41   4  0  0
 213  69   0   0   0   0  0  0
 214 646   0   5   0   0  1  0
 215 799   0   6   6   6  0  0
 216  71   0   0   0   0  0  0
 217 415   1   0   0   1  0  0
 218 200   0   2  42   4  0  0
 219  69   0   0   0   0  0  0
 220 646   0   5   0   0  1  0
 221 799   0   6   6   6  0  0
 222  71   0   0   0   0  0  0
 223 415   1   0   0   1  0  0
 224 200   0   2  43   4  0  0
 225  69   0   0   0   0  0  0
 226 646   0   5   0   0  1  0
 227 799   0   6   6   6  0  0
 228  71   0   0   0   0  0  0
 229 415   1   0   0   1  0  0
 230 200   0   2  44   4  0  0
 231  69   0   0   0   0  0  0
 232 646   0   5   0   0  1  0
 233 799   0   6   6   6  0  0
 234  71   0   0   0   0  0  0
 235 415   1   0   0   1  0  0
 236 200   0   2  45   4  0  0
 237  69   0   0   0   0  0  0
 238 646   0   5   0   0  1  0
 239 799   0   6   6   6  0  0
 240  71   0   0   0   0  0  0
 241 415   1   0   0   1  0  0
 242 200   0   2  46   4  0  0
 243  69   0   0   0   0  0  0
 244 646   0   5   0   0  1  0
 245 799   0   6   6   6  0  0
 246  71   0   0   0   0  0  0
 247 415   1   0   0   1  0  0
 248 200   0   2  47   4  0  0
 249  69   0   0   0   0  0  0
 250 646   0   5   0   0  1  0
 251 799   0   6   6   6  0  0
 252  71   0   0   0   0  0  0
 253 415   1   0   0   1  0  0
 254 200   0   2  48   4  0  0
 255  69   0   0   0   0  0  0
 256 646   0   5   0   0  1  0
 257 799   0   6   6   6  0  0
 258  71   0   0   0   0  0  0
 259 415   1   0   0   1  0  0
 260 200   0   2  49   4  0  0
 261  69   0   0   0   0  0  0
 262 646   0   5   0   0  1  0
 263 799   0   6   6   6  0  0
 264  71   0   0   0   0  0  0
 265 415   1   0   0   1  0  0
 266 200   0   2  50   4  0  0
 267  69   0   0   0   0  0  0
 268 646   0   5   0   0  1  0
 269 799   0   6   6   6  0  0
 270  71   0   0   0   0  0  0
 271 415   1   0   0   1  0  0
 272 200   0   2  51   4  0  0
 273  69   0   0   0   0  0  0
 274 646   0   5   0   0  1  0
 275 799   0   6   6   6  0  0
 276  71   0   0   0   0  0  0
 277 415   1   0   0   1  0  0
 278 200   0   2  52   4  0  0
 279  69   0   0   0   0  0  0
 280 646   0   5   0   0  1  0
 281 799   0   6   6   6  0  0
 282  71   0   0   0   0  0  0
 283 415   1   0   0   1  0  0
 284 200   0   2  53   4  0  0
 285  69   0   0   0   0  0  0
 286 646   0   5   0   0  1  0
 287 799   0   6   6   6  0  0
 288  71   0   0   0   0  0  0
 289 415   1   0   0   1  0  0
 290 200   0   2  54   4  0  0
 291  69   0   0   0   0  0  0
 292 646   0   5   0   0  1  0
 293 799   0   6   6   6  0  0
 294  71   0   0   0   0  0  0
 295 415   1   0   0   1  0  0
 296 200   0   2  55   4  0  0
 297  69   0   0   0   0  0  0
 298 646   0   5   0   0  1  0
 299 799   0   6   6   6  0  0
 300  71   0   0   0   0  0  0
 301 415   1   0   0   1  0  0
 302 200   0   2  56   4  0  0
 303  69   0   0   0   0  0  0
 304 646   0   5   0   0  1  0
 305 799   0   6   6   6  0  0
 306  71   0   0   0   0  0  0
 307 415   1   0   0   1  0  0
 308 200   0   2  57   4  0  0
 309  69   0   0   0   0  0  0
 310 646   0   5   0   0  1  0
 311 799   0   6   6   6  0  0
[RF]
1       82.288 1 2 0 100 0 0

# Format of trapezoid gradients:
# id amplitude rise flat fall delay
# ..      Hz/m   us   us   us    us
[TRAP]
 1       200000  50 4000  50  50
 2      -256298  40 1920  40   0
 3      -255102  40 1920  40   0
 4      -506250 120  680 120   0
 5       156250  30 6400  30   0
 6       510642 120 7750 120   0
 7      -253109  40 1920  40   0
 8      -251116  40 1920  40   0
 9      -249123  40 1920  40   0
10      -247130  40 1920  40   0
11      -245137  40 1920  40   0
12      -243144  40 1920  40   0
13      -241151  40 1920  40   0
14      -239158  40 1920  40   0
15      -237165  40 1920  40   0
16      -235172  40 1920  40   0
17      -233179  40 1920  40   0
18      -231186  40 1920  40   0
19      -229193  40 1920  40   0
20      -227200  40 1920  40   0
21      -225207  40 1920  40   0
22      -223214  40 1920  40   0
23      -221221  40 1920  40   0
24      -219228  40 1920  40   0
25      -216133  30 1940  30   0
26      -214150  30 1940  30   0
27      -212167  30 1940  30   0
28      -210184  30 1940  30   0
29      -208201  30 1940  30   0
30      -206218  30 1940  30   0
31      -204235  30 1940  30   0
32      -202253  30 1940  30   0
33      -200270  30 1940  30   0
34      -198287  30 1940  30   0
35      -196304  30 1940  30   0
36      -194321  30 1940  30   0
37      -192338  30 1940  30   0
38      -190355  30 1940  30   0
39      -188372  30 1940  30   0
40      -186390  30 1940  30   0
41      -184407  30 1940  30   0
42      -182424  30 1940  30   0
43      -180441  30 1940  30   0
44      -178458  30 1940  30   0
45      -176475  30 1940  30   0
46      -174492  30 1940  30   0
47      -172510  30 1940  30   0
48      -170527  30 1940  30   0
49      -168544  30 1940  30   0
50      -166561  30 1940  30   0
51      -164578  30 1940  30   0
52      -162595  30 1940  30   0
53      -160612  30 1940  30   0
54      -158629  30 1940  30   0
55      -156647  30 1940  30   0
56      -154664  30 1940  30   0
57      -152681  30 1940  30   0
58      -150698  30 1940  30   0
59      -148715  30 1940  30   0
60      -146732  30 1940  30   0
61      -144018  20 1960  20   0
62      -142045  20 1960  20   0
63      -140073  20 1960  20   0
64      -138100  20 1960  20   0
65      -136127  20 1960  20   0
66      -134154  20 1960  20   0
67      -132181  20 1960  20   0
68      -130208  20 1960  20   0
69      -128235  20 1960  20   0
70      -126263  20 1960  20   0
71      -124290  20 1960  20   0
72      -122317  20 1960  20   0
73      -120344  20 1960  20   0
74      -118371  20 1960  20   0
75      -116398  20 1960  20   0
76      -114426  20 1960  20   0
77      -112453  20 1960  20   0
78      -110480  20 1960  20   0
79      -108507  20 1960  20   0
80      -106534  20 1960  20   0
81      -104561  20 1960  20   0
82      -102588  20 1960  20   0
83      -100616  20 1960  20   0
84     -98642.7  20 1960  20   0
85     -96669.8  20 1960  20   0
86       -94697  20 1960  20   0
87     -92724.1  20 1960  20   0
88     -90751.3  20 1960  20   0
89     -88778.4  20 1960  20   0
90     -86805.6  20 1960  20   0
91     -84832.7  20 1960  20   0
92     -82859.8  20 1960  20   0
93       -80887  20 1960  20   0
94     -78914.1  20 1960  20   0
95     -76941.3  20 1960  20   0
96     -74968.4  20 1960  20   0
97     -72995.6  20 1960  20   0
98     -70665.8  10 1980  10   0
99     -68702.9  10 1980  10   0
100     -66739.9  10 1980  10   0
101       -64777  10 1980  10   0
102     -62814.1  10 1980  10   0
103     -60851.1  10 1980  10   0
104     -58888.2  10 1980  10   0
105     -56925.3  10 1980  10   0
106     -54962.3  10 1980  10   0
107     -52999.4  10 1980  10   0
108     -51036.4  10 1980  10   0
109     -49073.5  10 1980  10   0
110     -47110.6  10 1980  10   0
111     -45147.6  10 1980  10   0
112     -43184.7  10 1980  10   0
113     -41221.7  10 1980  10   0
114     -39258.8  10 1980  10   0
115     -37295.9  10 1980  10   0
116     -35332.9  10 1980  10   0
117       -33370  10 1980  10   0
118       -31407  10 1980  10   0
119     -29444.1  10 1980  10   0
120     -27481.2  10 1980  10   0
121     -25518.2  10 1980  10   0
122     -23555.3  10 1980  10   0
123     -21592.3  10 1980  10   0
124     -19629.4  10 1980  10   0
125     -17666.5  10 1980  10   0
126     -15703.5  10 1980  10   0
127     -13740.6  10 1980  10   0
128     -11777.6  10 1980  10   0
129      -9814.7  10 1980  10   0
130     -7851.76  10 1980  10   0
131     -5888.82  10 1980  10   0
132     -3925.88  10 1980  10   0
133     -1962.94  10 1980  10   0
134            0  10 1980  10   0
135      1962.94  10 1980  10   0
136      3925.88  10 1980  10   0
137      5888.82  10 1980  10   0
138      7851.76  10 1980  10   0
139       9814.7  10 1980  10   0
140      11777.6  10 1980  10   0
141      13740.6  10 1980  10   0
142      15703.5  10 1980  10   0
143      17666.5  10 1980  10   0
144      19629.4  10 1980  10   0
145      21592.3  10 1980  10   0
146      23555.3  10 1980  10   0
147      25518.2  10 1980  10   0
148      27481.2  10 1980  10   0
149      29444.1  10 1980  10   0
150        31407  10 1980  10   0
151        33370  10 1980  10   0
152      35332.9  10 1980  10   0
153      37295.9  10 1980  10   0
154      39258.8  10 1980  10   0
155      41221.7  10 1980  10   0
156      43184.7  10 1980  10   0
157      45147.6  10 1980  10   0
158      47110.6  10 1980  10   0
159      49073.5  10 1980  10   0
160      51036.4  10 1980  10   0
161      52999.4  10 1980  10   0
162      54962.3  10 1980  10   0
163      56925.3  10 1980  10   0
164      58888.2  10 1980  10   0
165      60851.1  10 1980  10   0
166      62814.1  10 1980  10   0
167        64777  10 1980  10   0
168      66739.9  10 1980  10   0
169      68702.9  10 1980  10   0
170      70665.8  10 1980  10   0
171      72995.6  20 1960  20   0
172      74968.4  20 1960  20   0
173      76941.3  20 1960  20   0
174      78914.1  20 1960  20   0
175        80887  20 1960  20   0
176      82859.8  20 1960  20   0
177      84832.7  20 1960  20   0
178      86805.6  20 1960  20   0
179      88778.4  20 1960  20   0
180      90751.3  20 1960  20   0
181      92724.1  20 1960  20   0
182        94697  20 1960  20   0
183      96669.8  20 1960  20   0
184      98642.7  20 1960  20   0
185       100616  20 1960  20   0
186       102588  20 1960  20   0
187       104561  20 1960  20   0
188       106534  20 1960  20   0
189       108507  20 1960  20   0
190       110480  20 1960  20   0
191       112453  20 1960  20   0
192       114426  20 1960  20   0
193       116398  20 1960  20   0
194       118371  20 1960  20   0
195       120344  20 1960  20   0
196       122317  20 1960  20   0
197       124290  20 1960  20   0
198       126263  20 1960  20   0
199       128235  20 1960  20   0
200       130208  20 1960  20   0
201       132181  20 1960  20   0
202       134154  20 1960  20   0
203       136127  20 1960  20   0
204       138100  20 1960  20   0
205       140073  20 1960  20   0
206       142045  20 1960  20   0
207       144018  20 1960  20   0
208       146732  30 1940  30   0
209       148715  30 1940  30   0
210       150698  30 1940  30   0
211       152681  30 1940  30   0
212       154664  30 1940  30   0
213       156647  30 1940  30   0
214       158629  30 1940  30   0
215       160612  30 1940  30   0
216       162595  30 1940  30   0
217       164578  30 1940  30   0
218       166561  30 1940  30   0
219       168544  30 1940  30   0
220       170527  30 1940  30   0
221       172510  30 1940  30   0
222       174492  30 1940  30   0
223       176475  30 1940  30   0
224       178458  30 1940  30   0
225       180441  30 1940  30   0
226       182424  30 1940  30   0
227       184407  30 1940  30   0
228       186390  30 1940  30   0
229       188372  30 1940  30   0
230       190355  30 1940  30   0
231       192338  30 1940  30   0
232       194321  30 1940  30   0
233       196304  30 1940  30   0
234       198287  30 1940  30   0
235       200270  30 1940  30   0
236       202253  30 1940  30   0
237       204235  30 1940  30   0
238       206218  30 1940  30   0
239       208201  30 1940  30   0
240       210184  30 1940  30   0
241       212167  30 1940  30   0
242       214150  30 1940  30   0
243       216133  30 1940  30   0
244       219228  40 1920  40   0
245       221221  40 1920  40   0
246       223214  40 1920  40   0
247       225207  40 1920  40   0
248       227200  40 1920  40   0
249       229193  40 1920  40   0
250       231186  40 1920  40   0
251       233179  40 1920  40   0
252       235172  40 1920  40   0
253       237165  40 1920  40   0
254       239158  40 1920  40   0
255       241151  40 1920  40   0
256       243144  40 1920  40   0
257       245137  40 1920  40   0
258       247130  40 1920  40   0
259       249123  40 1920  40   0
260       251116  40 1920  40   0
261       253109  40 1920  40   0

# Format of ADC events:
# id num dwell delay freq phase
# ..  ..    ns    us   Hz   rad
[ADC]
1 256 25000 30 0 0

# Sequence Shapes
[SHAPES]

shape_id 1
num_samples 4000
3.85627869e-11
1.04171238e-09
4.82512116e-09
1.32466171e-08
2.81675804e-08
5.14528842e-08
8.49708342e-08
1.30593109e-07
1.90194699e-07
2.65653846e-07
3.58851985e-07
4.7167368e-07
6.06006564e-07
7.63741281e-07
9.46771418e-07
1.15699345e-06
1.39630668e-06
1.66661316e-06
1.96981767e-06
2.30782759e-06
2.6825529e-06
3.0959061e-06
3.54980212e-06
4.0461583e-06
4.58689428e-06
5.17393199e-06
5.80919554e-06
6.49461119e-06
7.23210725e-06
8.02361408e-06
8.87106393e-06
9.77639098e-06
1.07415312e-05
1.17684223e-05
1.28590038e-05
1.40152166e-05
1.52390034e-05
1.65323083e-05
1.78970768e-05
1.93352559e-05
2.08487936e-05
2.24396394e-05
2.4109744e-05
2.58610591e-05
2.76955373e-05
2.96151325e-05
3.16217992e-05
3.37174929e-05
3.59041699e-05
3.81837871e-05
4.0558302e-05
4.3029673e-05
4.55998586e-05
4.82708179e-05
5.10445106e-05
5.39228963e-05
5.69079352e-05
6.00015874e-05
6.32058133e-05
6.65225733e-05
6.99538278e-05
7.35015369e-05
7.71676608e-05
8.09541593e-05
8.48629921e-05
8.88961183e-05
9.30554966e-05
9.73430855e-05
0.000101760842
0.000106310725
0.000110994688
0.000115814689
0.000120772682
0.000125870621
0.000131110458
0.000136494146
0.000142023634
0.000147700873
0.000153527811
0.000159506395
0.00016563857
0.00017192628
0.000178371469
0.000184976075
0.00019174204
0.000198671301
0.000205765792
0.000213027449
0.000220458203
0.000228059983
0.000235834718
0.000243784334
0.000251910753
0.000260215896
0.000268701683
0.000277370029
0.000286222849
0.000295262054
0.000304489552
0.000313907248
0.000323517047
0.000333320848
0.000343320548
0.000353518043
0.000363915221
0.000374513973
0.000385316183
0.000396323732
0.000407538498
0.000418962356
0.000430597178
0.000442444831
0.000454507179
0.000466786083
0.000479283399
0.00049200098
0.000504940675
0.000518104329
0.000531493781
0.00054511087
0.000558957427
0.000573035281
0.000587346255
0.000601892169
0.000616674838
0.000631696072
0.000646957677
0.000662461454
0.000678209199
0.000694202704
0.000710443755
0.000726934133
0.000743675616
0.000760669975
0.000777918975
0.000795424378
0.00081318794
0.00083121141
0.000849496533
0.000868045049
0.00088685869
0.000905939185
0.000925288256
0.00094490762
0.000964798986
0.000984964058
0.00100540454
0.00102612211
0.00104711847
0.00106839529
0.00108995425
0.00111179702
0.00113392524
0.00115634059
0.0011790447
0.00120203922
0.00122532578
0.00124890601
0.00127278153
0.00129695395
0.00132142488
0.00134619592
0.00137126865
0.00139664468
0.00142232556
0.00144831288
0.00147460819
0.00150121305
0.00152812901
0.00155535761
0.00158290038
0.00161075885
0.00163893453
0.00166742893
0.00169624355
0.00172537988
0.00175483942
0.00178462363
0.00181473398
0.00184517193
0.00187593894
0.00190703645
0.00193846589
0.00197022868
0.00200232625
0.00203476
0.00206753133
0.00210064164
0.0021340923
0.00216788468
0.00220202016
0.00223650008
0.00227132578
0.00230649862
0.0023420199
0.00237789096
0.00241411308
0.00245068759
0.00248761575
0.00252489886
0.00256253817
0.00260053496
0.00263889046
0.00267760592
0.00271668257
0.00275612162
0.00279592428
0.00283609176
0.00287662524
0.0029175259
0.0029587949
0.00300043341
0.00304244258
0.00308482352
0.00312757738
0.00317070527
0.00321420828
0.00325808752
0.00330234407
0.00334697899
0.00339199334
0.00343738818
0.00348316455
0.00352932346
0.00357586593
0.00362279298
0.00367010558
0.00371780472
0.00376589137
0.00381436649
0.00386323102
0.00391248589
0.00396213203
0.00401217036
0.00406260176
0.00411342712
0.00416464732
0.00421626322
0.00426827567
0.0043206855
0.00437349355
0.00442670063
0.00448030753
0.00453431505
0.00458872396
0.00464353502
0.00469874898
0.00475436659
0.00481038856
0.00486681561
0.00492364844
0.00498088773
0.00503853415
0.00509658838
0.00515505104
0.00521392278
0.00527320422
0.00533289596
0.0053929986
0.00545351272
0.00551443889
0.00557577765
0.00563752955
0.00569969512
0.00576227486
0.00582526928
0.00588867885
0.00595250406
0.00601674535
0.00608140318
0.00614647797
0.00621197013
0.00627788006
0.00634420816
0.00641095479
0.00647812032
0.00654570508
0.00661370941
0.00668213361
0.006750978
0.00682024285
0.00688992844
0.00696003502
0.00703056284
0.00710151212
0.00717288308
0.0072446759
0.00731689078
0.00738952789
0.00746258736
0.00753606935
0.00760997396
0.00768430132
0.00775905151
0.00783422461
0.00790982068
0.00798583976
0.00806228188
0.00813914707
0.00821643532
0.00829414661
0.00837228091
0.00845083817
0.00852981834
0.00860922133
0.00868904704
0.00876929538
0.0088499662
0.00893105937
0.00901257473
0.00909451211
0.00917687132
0.00925965214
0.00934285436
0.00942647773
0.00951052202
0.00959498693
0.00967987218
0.00976517748
0.0098509025
0.0099370469
0.0100236103
0.0101105924
0.0101979928
0.010285811
0.0103740467
0.0104626994
0.0105517687
0.010641254
0.010731155
0.0108214711
0.0109122017
0.0110033464
0.0110949046
0.0111868757
0.0112792591
0.0113720543
0.0114652605
0.0115588773
0.0116529038
0.0117473395
0.0118421836
0.0119374355
0.0120330943
0.0121291595
0.0122256301
0.0123225055
0.0124197848
0.0125174672
0.0126155519
0.0127140381
0.0128129248
0.0129122112
0.0130118965
0.0131119796
0.0132124596
0.0133133356
0.0134146067
0.0135162718
0.0136183299
0.0137207799
0.013823621
0.0139268519
0.0140304716
0.0141344791
0.0142388732
0.0143436527
0.0144488165
0.0145543635
0.0146602925
0.0147666022
0.0148732915
0.014980359
0.0150878036
0.015195624
0.0153038188
0.0154123867
0.0155213265
0.0156306367
0.0157403161
0.0158503631
0.0159607765
0.0160715547
0.0161826963
0.0162942
0.0164060641
0.0165182873
0.0166308679
0.0167438045
0.0168570954
0.0169707392
0.0170847342
0.0171990789
0.0173137715
0.0174288105
0.0175441942
0.0176599209
0.0177759888
0.0178923964
0.0180091418
0.0181262233
0.0182436391
0.0183613873
0.0184794663
0.0185978742
0.018716609
0.018835669
0.0189550523
0.0190747568
0.0191947808
0.0193151223
0.0194357792
0.0195567497
0.0196780317
0.0197996232
0.0199215221
0.0200437265
0.0201662341
0.020289043
0.0204121509
0.0205355559
0.0206592556
0.020783248
0.0209075309
0.0210321019
0.021156959
0.0212820999
0.0214075222
0.0215332238
0.0216592022
0.0217854552
0.0219119805
0.0220387756
0.0221658382
0.022293166
0.0224207563
0.0225486069
0.0226767153
0.022805079
0.0229336955
0.0230625623
0.0231916768
0.0233210365
0.0234506389
0.0235804813
0.0237105611
0.0238408758
0.0239714226
0.0241021988
0.0242332019
0.0243644291
0.0244958777
0.0246275449
0.024759428
0.0248915242
0.0250238307
0.0251563447
0.0252890633
0.0254219838
0.0255551031
0.0256884184
0.0258219269
0.0259556256
0.0260895115
0.0262235816
0.026357833
0.0264922627
0.0266268677
0.0267616448
0.0268965911
0.0270317034
0.0271669787
0.0273024139
0.0274380057
0.0275737511
0.0277096469
0.0278456898
0.0279818767
0.0281182044
0.0282546695
0.0283912689
0.0285279992
0.0286648571
0.0288018393
0.0289389425
0.0290761633
0.0292134983
0.0293509441
0.0294884974
0.0296261546
0.0297639123
0.0299017671
0.0300397155
0.0301777539
0.0303158788
0.0304540867
0.0305923741
0.0307307372
0.0308691726
0.0310076767
0.0311462457
0.031284876
0.031423564
0.031562306
0.0317010982
0.031839937
0.0319788186
0.0321177392
0.032256695
0.0323956823
0.0325346972
0.0326737359
0.0328127946
0.0329518693
0.0330909563
0.0332300515
0.0333691511
0.0335082511
0.0336473476
0.0337864365
0.033925514
0.0340645759
0.0342036183
0.0343426372
0.0344816283
0.0346205878
0.0347595114
0.034898395
0.0350372346
0.035176026
0.0353147649
0.0354534473
0.0355920689
0.0357306255
0.0358691129
0.0360075267
0.0361458629
0.0362841169
0.0364222847
0.0365603617
0.0366983438
0.0368362265
0.0369740055
0.0371116763
0.0372492347
0.0373866761
0.0375239961
0.0376611903
0.0377982542
0.0379351833
0.0380719731
0.0382086191
0.0383451168
0.0384814616
0.0386176489
0.0387536741
0.0388895327
0.0390252201
0.0391607315
0.0392960625
0.0394312082
0.039566164
0.0397009252
0.0398354872
0.0399698451
0.0401039942
0.0402379299
0.0403716472
0.0405051415
0.0406384078
0.0407714415
0.0409042376
0.0410367914
0.0411690978
0.0413011521
0.0414329494
0.0415644848
0.0416957533
0.0418267499
0.0419574698
0.0420879079
0.0422180594
0.0423479191
0.042477482
0.0426067432
0.0427356976
0.0428643401
0.0429926657
0.0431206692
0.0432483456
0.0433756898
0.0435026966
0.0436293608
0.0437556774
0.0438816412
0.0440072469
0.0441324893
0.0442573634
0.0443818638
0.0445059852
0.0446297225
0.0447530704
0.0448760235
0.0449985766
0.0451207245
0.0452424617
0.0453637829
0.0454846828
0.045605156
0.0457251972
0.045844801
0.0459639619
0.0460826746
0.0462009336
0.0463187335
0.0464360689
0.0465529343
0.0466693241
0.046785233
0.0469006555
0.0470155859
0.0471300189
0.0472439488
0.0473573701
0.0474702773
0.0475826647
0.0476945269
0.0478058582
0.0479166529
0.0480269056
0.0481366106
0.0482457621
0.0483543546
0.0484623825
0.04856984
0.0486767214
0.0487830211
0.0488887333
0.0489938524
0.0490983726
0.0492022881
0.0493055933
0.0494082823
0.0495103495
0.0496117889
0.0497125949
0.0498127616
0.0499122832
0.0500111539
0.0501093678
0.0502069192
0.0503038022
0.0504000109
0.0504955394
0.0505903819
0.0506845325
0.0507779852
0.0508707343
0.0509627737
0.0510540975
0.0511446998
0.0512345747
0.0513237163
0.0514121184
0.0514997753
0.0515866809
0.0516728292
0.0517582142
0.0518428299
0.0519266704
0.0520097296
0.0520920014
0.0521734799
0.052254159
0.0523340326
0.0524130947
0.0524913393
0.0525687602
0.0526453514
0.0527211067
0.0527960202
0.0528700857
0.052943297
0.0530156481
0.0530871329
0.0531577452
0.0532274789
0.0532963278
0.0533642858
0.0534313468
0.0534975046
0.053562753
0.0536270858
0.0536904969
0.05375298
0.0538145291
0.0538751379
0.0539348001
0.0539935097
0.0540512603
0.0541080458
0.0541638599
0.0542186965
0.0542725492
0.0543254119
0.0543772782
0.054428142
0.054477997
0.054526837
0.0545746556
0.0546214467
0.0546672039
0.054711921
0.0547555917
0.0547982098
0.0548397688
0.0548802627
0.0549196849
0.0549580294
0.0549952897
0.0550314596
0.0550665327
0.0551005028
0.0551333636
0.0551651086
0.0551957317
0.0552252265
0.0552535867
0.0552808059
0.0553068778
0.0553317962
0.0553555546
0.0553781467
0.0553995663
0.0554198069
0.0554388622
0.0554567259
0.0554733917
0.0554888532
0.055503104
0.0555161379
0.0555279484
0.0555385293
0.0555478741
0.0555559766
0.0555628304
0.0555684291
0.0555727664
0.0555758359
0.0555776313
0.0555781463
0.0555773744
0.0555753094
0.0555719449
0.0555672745
0.0555612919
0.0555539907
0.0555453647
0.0555354074
0.0555241125
0.0555114737
0.0554974846
0.0554821388
0.0554654301
0.0554473522
0.0554278985
0.0554070629
0.055384839
0.0553612204
0.0553362009
0.0553097741
0.0552819337
0.0552526733
0.0552219866
0.0551898674
0.0551563092
0.0551213059
0.055084851
0.0550469383
0.0550075615
0.0549667142
0.0549243902
0.0548805832
0.0548352869
0.054788495
0.0547402012
0.0546903993
0.0546390829
0.0545862458
0.0545318818
0.0544759845
0.0544185478
0.0543595653
0.0542990309
0.0542369382
0.0541732811
0.0541080533
0.0540412485
0.0539728607
0.0539028834
0.0538313107
0.0537581361
0.0536833536
0.0536069569
0.0535289399
0.0534492963
0.0533680201
0.053285105
0.0532005448
